time,bvp
1634885786007,-3.8
1634885786022,-9.0
1634885786038,-14.33
1634885786054,-19.31
1634885786069,-23.5
1634885786085,-26.68
1634885786100,-28.93
1634885786116,-30.59
1634885786132,-32.14
1634885786147,-34.07
1634885786163,-36.73
1634885786179,-40.31
1634885786194,-44.75
1634885786210,-49.72
1634885786225,-54.57
1634885786241,-58.42
1634885786257,-60.31
1634885786272,-59.39
1634885786288,-55.19
1634885786304,-47.77
1634885786319,-37.64
1634885786335,-25.55
1634885786350,-12.23
1634885786366,1.8
1634885786382,16.16
1634885786397,30.42
1634885786413,43.97
1634885786429,56.03
1634885786444,65.78
1634885786460,72.73
1634885786475,76.9
1634885786491,78.79
1634885786507,79.15
1634885786522,78.67
1634885786538,77.77
1634885786554,76.49
1634885786569,74.65
1634885786585,72.04
1634885786600,68.52
1634885786616,64.22
1634885786632,59.39
1634885786647,54.41
1634885786663,49.59
1634885786679,45.1
1634885786694,40.88
1634885786710,36.65
1634885786725,32.0
1634885786741,26.46
1634885786757,19.65
1634885786772,11.38
1634885786788,1.88
1634885786804,-8.15
1634885786819,-17.49
1634885786835,-24.59
1634885786850,-28.03
1634885786866,-26.92
1634885786882,-21.32
1634885786897,-12.24
1634885786913,-1.28
1634885786929,9.91
1634885786944,20.11
1634885786960,28.77
1634885786975,35.88
1634885786991,41.63
1634885787007,46.09
1634885787022,49.16
1634885787038,50.71
1634885787054,50.83
1634885787069,49.87
1634885787085,48.46
1634885787100,47.17
1634885787116,46.28
1634885787132,45.62
1634885787147,44.64
1634885787163,42.73
1634885787179,39.52
1634885787194,35.16
1634885787210,30.27
1634885787225,25.63
1634885787241,21.78
1634885787257,18.76
1634885787272,15.97
1634885787288,12.54
1634885787304,7.65
1634885787319,0.84
1634885787335,-7.84
1634885787350,-17.9
1634885787366,-28.6
1634885787382,-39.03
1634885787397,-48.15
1634885787413,-54.86
1634885787429,-58.16
1634885787444,-57.36
1634885787460,-52.41
1634885787475,-43.91
1634885787491,-33.0
1634885787507,-20.98
1634885787522,-9.0
1634885787538,2.23
1634885787554,12.44
1634885787569,21.69
1634885787585,30.1
1634885787600,37.72
1634885787616,44.4
1634885787632,49.87
1634885787647,53.89
1634885787663,56.4
1634885787679,57.65
1634885787694,58.13
1634885787710,58.32
1634885787725,58.5
1634885787741,58.6
1634885787757,58.23
1634885787772,56.91
1634885787788,54.34
1634885787804,50.51
1634885787819,45.7
1634885787835,40.33
1634885787850,34.75
1634885787866,29.06
1634885787882,23.17
1634885787897,16.74
1634885787913,9.37
1634885787929,0.7
1634885787944,-9.36
1634885787960,-20.46
1634885787975,-31.69
1634885787991,-41.72
1634885788007,-49.11
1634885788022,-52.8
1634885788038,-52.43
1634885788054,-48.43
1634885788069,-41.83
1634885788085,-33.8
1634885788100,-25.32
1634885788116,-17.07
1634885788132,-9.47
1634885788147,-2.9
1634885788163,2.33
1634885788179,6.01
1634885788194,8.2
1634885788210,9.29
1634885788225,9.93
1634885788241,10.85
1634885788257,12.65
1634885788272,15.61
1634885788288,19.6
1634885788304,24.13
1634885788319,28.53
1634885788335,32.25
1634885788350,34.99
1634885788366,36.82
1634885788382,38.02
1634885788397,38.82
1634885788413,39.24
1634885788429,39.13
1634885788444,38.33
1634885788460,36.85
1634885788475,34.89
1634885788491,32.6
1634885788507,29.94
1634885788522,26.73
1634885788538,22.93
1634885788554,18.91
1634885788569,15.4
1634885788585,13.13
1634885788601,12.49
1634885788616,13.3
1634885788632,15.01
1634885788647,17.16
1634885788663,19.55
1634885788679,22.25
1634885788694,25.21
1634885788710,28.0
1634885788726,29.86
1634885788741,30.12
1634885788757,28.68
1634885788772,26.21
1634885788788,23.89
1634885788804,22.82
1634885788819,23.48
1634885788835,25.52
1634885788851,27.96
1634885788866,29.63
1634885788882,29.67
1634885788897,27.8
1634885788913,24.37
1634885788929,20.21
1634885788944,16.31
1634885788960,13.53
1634885788976,12.38
1634885788991,12.9
1634885789007,14.7
1634885789022,17.14
1634885789038,19.48
1634885789054,21.04
1634885789069,21.33
1634885789085,20.21
1634885789101,17.97
1634885789116,15.28
1634885789132,13.08
1634885789147,12.29
1634885789163,13.54
1634885789179,16.96
1634885789194,22.22
1634885789210,28.69
1634885789226,35.71
1634885789241,42.78
1634885789257,49.5
1634885789272,55.5
1634885789288,60.23
1634885789304,63.12
1634885789319,63.8
1634885789335,62.43
1634885789351,59.91
1634885789366,57.68
1634885789382,57.12
1634885789397,58.95
1634885789413,62.74
1634885789429,67.08
1634885789444,70.22
1634885789460,71.05
1634885789476,69.66
1634885789491,67.35
1634885789507,65.81
1634885789522,66.16
1634885789538,68.29
1634885789554,70.87
1634885789569,72.11
1634885789585,70.6
1634885789601,65.97
1634885789616,58.9
1634885789632,50.69
1634885789647,42.7
1634885789663,35.99
1634885789679,31.1
1634885789694,27.91
1634885789710,25.36
1634885789726,21.11
1634885789741,11.59
1634885789757,-7.04
1634885789772,-37.24
1634885789788,-78.36
1634885789804,-125.81
1634885789819,-171.99
1634885789835,-208.79
1634885789851,-230.55
1634885789866,-236.11
1634885789882,-228.94
1634885789897,-215.18
1634885789913,-200.76
1634885789929,-188.91
1634885789944,-179.45
1634885789960,-169.9
1634885789976,-157.55
1634885789991,-141.17
1634885790007,-121.43
1634885790022,-100.07
1634885790038,-78.55
1634885790054,-57.39
1634885790069,-36.39
1634885790085,-15.46
1634885790101,4.6
1634885790116,21.96
1634885790132,34.56
1634885790147,41.1
1634885790163,41.98
1634885790179,39.29
1634885790194,36.09
1634885790210,35.23
1634885790226,38.37
1634885790241,45.4
1634885790257,54.77
1634885790272,64.29
1634885790288,72.02
1634885790304,77.06
1634885790319,79.77
1634885790335,81.48
1634885790351,83.73
1634885790366,87.47
1634885790382,92.71
1634885790397,98.6
1634885790413,103.92
1634885790429,107.7
1634885790444,109.46
1634885790460,109.22
1634885790476,107.26
1634885790491,103.86
1634885790507,99.1
1634885790522,92.85
1634885790538,84.88
1634885790554,75.15
1634885790569,63.98
1634885790585,52.06
1634885790601,40.3
1634885790616,29.43
1634885790632,19.74
1634885790647,10.96
1634885790663,2.5
1634885790679,-6.17
1634885790694,-15.28
1634885790710,-24.53
1634885790726,-33.24
1634885790741,-40.63
1634885790757,-46.05
1634885790772,-49.25
1634885790788,-50.34
1634885790804,-49.7
1634885790819,-47.76
1634885790835,-44.91
1634885790851,-41.37
1634885790866,-37.26
1634885790882,-32.7
1634885790897,-27.95
1634885790913,-23.45
1634885790929,-19.82
1634885790944,-17.51
1634885790960,-16.67
1634885790976,-16.97
1634885790991,-17.73
1634885791007,-18.17
1634885791022,-17.7
1634885791038,-16.13
1634885791054,-13.72
1634885791069,-11.03
1634885791085,-8.67
1634885791101,-7.18
1634885791116,-6.77
1634885791132,-7.33
1634885791147,-8.48
1634885791163,-9.79
1634885791179,-10.93
1634885791194,-11.82
1634885791210,-12.6
1634885791226,-13.46
1634885791241,-14.43
1634885791257,-15.32
1634885791272,-15.84
1634885791288,-15.88
1634885791304,-15.64
1634885791319,-15.58
1634885791335,-16.09
1634885791351,-17.22
1634885791366,-18.56
1634885791382,-19.52
1634885791397,-19.82
1634885791413,-19.72
1634885791429,-19.97
1634885791444,-21.31
1634885791460,-23.97
1634885791476,-27.37
1634885791491,-30.41
1634885791507,-32.0
1634885791522,-31.62
1634885791538,-29.63
1634885791554,-26.95
1634885791569,-24.6
1634885791585,-23.14
1634885791601,-22.55
1634885791616,-22.32
1634885791632,-21.89
1634885791647,-20.98
1634885791663,-19.77
1634885791679,-18.79
1634885791694,-18.69
1634885791710,-19.97
1634885791726,-22.78
1634885791741,-26.88
1634885791757,-31.65
1634885791772,-36.17
1634885791788,-39.42
1634885791804,-40.47
1634885791819,-38.74
1634885791835,-34.23
1634885791851,-27.61
1634885791866,-20.22
1634885791882,-13.75
1634885791897,-9.74
1634885791913,-9.07
1634885791929,-11.61
1634885791944,-16.36
1634885791960,-21.89
1634885791976,-26.92
1634885791991,-30.72
1634885792007,-33.17
1634885792022,-34.47
1634885792038,-34.75
1634885792054,-33.88
1634885792069,-31.59
1634885792085,-27.81
1634885792101,-22.96
1634885792116,-17.95
1634885792132,-13.82
1634885792147,-11.26
1634885792163,-10.28
1634885792179,-10.34
1634885792194,-10.79
1634885792210,-11.3
1634885792226,-12.08
1634885792241,-13.59
1634885792257,-16.12
1634885792272,-19.35
1634885792288,-22.38
1634885792304,-23.96
1634885792319,-23.14
1634885792335,-19.59
1634885792351,-13.79
1634885792366,-6.74
1634885792382,0.38
1634885792397,6.64
1634885792413,11.46
1634885792429,14.68
1634885792444,16.29
1634885792460,16.42
1634885792476,15.31
1634885792491,13.44
1634885792507,11.6
1634885792522,10.65
1634885792538,11.25
1634885792554,13.33
1634885792569,16.07
1634885792585,18.23
1634885792601,18.82
1634885792616,17.74
1634885792632,15.84
1634885792647,14.44
1634885792663,14.51
1634885792679,16.14
1634885792694,18.65
1634885792710,21.29
1634885792726,23.81
1634885792741,26.7
1634885792757,30.59
1634885792772,35.5
1634885792788,40.44
1634885792804,43.87
1634885792819,44.67
1634885792835,43.08
1634885792851,40.8
1634885792866,40.27
1634885792882,43.32
1634885792897,50.19
1634885792913,59.37
1634885792929,68.31
1634885792944,74.56
1634885792960,76.74
1634885792976,74.93
1634885792991,70.43
1634885793007,65.21
1634885793022,61.2
1634885793038,59.76
1634885793054,61.44
1634885793069,66.01
1634885793085,72.67
1634885793101,80.44
1634885793116,88.37
1634885793132,95.67
1634885793147,101.67
1634885793163,105.77
1634885793179,107.52
1634885793194,106.76
1634885793210,103.78
1634885793226,99.34
1634885793241,94.54
1634885793257,90.47
1634885793272,87.85
1634885793288,86.87
1634885793304,87.2
1634885793319,88.2
1634885793335,89.27
1634885793351,90.09
1634885793366,90.7
1634885793382,91.44
1634885793397,92.7
1634885793413,94.56
1634885793429,96.57
1634885793444,97.83
1634885793460,97.33
1634885793476,94.4
1634885793491,88.91
1634885793507,81.15
1634885793522,71.53
1634885793538,60.2
1634885793554,46.96
1634885793569,31.5
1634885793585,13.72
1634885793601,-6.03
1634885793616,-26.97
1634885793632,-48.09
1634885793647,-68.38
1634885793663,-86.95
1634885793679,-103.01
1634885793694,-115.91
1634885793710,-125.24
1634885793726,-131.0
1634885793741,-133.62
1634885793757,-133.97
1634885793772,-133.0
1634885793788,-131.45
1634885793804,-129.49
1634885793819,-126.68
1634885793835,-122.11
1634885793851,-114.77
1634885793866,-103.99
1634885793882,-89.79
1634885793897,-73.02
1634885793913,-55.23
1634885793929,-38.26
1634885793944,-23.69
1634885793960,-12.45
1634885793976,-4.65
1634885793991,0.21
1634885794007,2.91
1634885794022,4.12
1634885794038,4.26
1634885794054,3.57
1634885794069,2.34
1634885794085,1.13
1634885794101,0.72
1634885794116,1.91
1634885794132,5.12
1634885794147,10.13
1634885794163,16.04
1634885794179,21.51
1634885794194,25.21
1634885794210,26.16
1634885794226,24.11
1634885794241,19.53
1634885794257,13.55
1634885794272,7.68
1634885794288,3.54
1634885794304,2.48
1634885794319,5.14
1634885794335,10.99
1634885794351,18.27
1634885794366,24.25
1634885794382,26.1
1634885794397,21.85
1634885794413,11.2
1634885794429,-4.36
1634885794444,-22.1
1634885794460,-39.08
1634885794476,-53.13
1634885794491,-63.36
1634885794507,-69.99
1634885794522,-73.82
1634885794538,-75.56
1634885794554,-75.53
1634885794569,-73.74
1634885794585,-70.21
1634885794601,-65.31
1634885794616,-59.84
1634885794632,-54.97
1634885794647,-51.91
1634885794663,-51.66
1634885794679,-54.79
1634885794694,-61.23
1634885794710,-70.25
1634885794726,-80.57
1634885794741,-90.57
1634885794757,-98.59
1634885794772,-103.29
1634885794788,-103.8
1634885794804,-99.84
1634885794819,-91.72
1634885794835,-80.26
1634885794851,-66.72
1634885794866,-52.7
1634885794882,-39.88
1634885794897,-29.64
1634885794913,-22.73
1634885794929,-19.05
1634885794944,-17.68
1634885794960,-17.26
1634885794976,-16.46
1634885794991,-14.44
1634885795007,-11.14
1634885795022,-7.29
1634885795038,-4.08
1634885795054,-2.8
1634885795069,-4.39
1634885795085,-9.19
1634885795101,-16.87
1634885795116,-26.52
1634885795132,-36.88
1634885795147,-46.63
1634885795163,-54.53
1634885795179,-59.78
1634885795194,-62.14
1634885795210,-62.08
1634885795226,-60.69
1634885795241,-59.33
1634885795257,-59.23
1634885795272,-60.94
1634885795288,-64.15
1634885795304,-67.82
1634885795319,-70.63
1634885795335,-71.59
1634885795351,-70.34
1634885795366,-67.22
1634885795382,-62.92
1634885795397,-58.04
1634885795413,-52.77
1634885795429,-46.85
1634885795444,-39.85
1634885795460,-31.55
1634885795476,-22.3
1634885795491,-13.04
1634885795507,-5.09
1634885795522,0.29
1634885795538,2.33
1634885795554,0.92
1634885795569,-3.54
1634885795585,-10.41
1634885795601,-19.05
1634885795616,-28.94
1634885795632,-39.48
1634885795647,-49.85
1634885795663,-58.95
1634885795679,-65.68
1634885795694,-69.26
1634885795710,-69.4
1634885795726,-66.12
1634885795741,-59.43
1634885795757,-49.14
1634885795772,-35.04
1634885795788,-17.46
1634885795804,2.45
1634885795819,22.82
1634885795835,41.77
1634885795851,58.18
1634885795866,71.93
1634885795882,83.56
1634885795897,93.46
1634885795913,101.37
1634885795929,106.53
1634885795944,108.38
1634885795960,107.21
1634885795976,104.26
1634885795991,101.05
1634885796007,98.56
1634885796022,96.74
1634885796038,94.79
1634885796054,91.88
1634885796069,87.79
1634885796085,82.91
1634885796101,77.92
1634885796116,73.24
1634885796132,68.97
1634885796147,65.0
1634885796163,61.39
1634885796179,58.47
1634885796194,56.61
1634885796210,56.01
1634885796226,56.41
1634885796241,57.25
1634885796257,57.86
1634885796272,57.76
1634885796288,56.75
1634885796304,54.93
1634885796319,52.54
1634885796335,49.9
1634885796351,47.43
1634885796366,45.61
1634885796382,44.87
1634885796397,45.53
1634885796413,47.55
1634885796429,50.51
1634885796444,53.75
1634885796460,56.65
1634885796476,58.85
1634885796491,60.39
1634885796507,61.53
1634885796522,62.44
1634885796538,62.98
1634885796554,62.63
1634885796569,60.65
1634885796585,56.31
1634885796601,49.13
1634885796616,38.99
1634885796632,26.25
1634885796647,11.65
1634885796663,-3.69
1634885796679,-18.51
1634885796694,-31.65
1634885796710,-42.35
1634885796726,-50.41
1634885796741,-55.98
1634885796757,-59.3
1634885796772,-60.45
1634885796788,-59.44
1634885796804,-56.42
1634885796819,-51.99
1634885796835,-47.0
1634885796851,-42.17
1634885796866,-37.61
1634885796882,-32.77
1634885796897,-26.74
1634885796913,-18.87
1634885796929,-9.23
1634885796944,1.42
1634885796960,12.0
1634885796976,21.69
1634885796991,30.14
1634885797007,37.4
1634885797022,43.64
1634885797038,48.86
1634885797054,52.82
1634885797069,55.12
1634885797085,55.46
1634885797101,53.77
1634885797116,50.32
1634885797132,45.62
1634885797147,40.34
1634885797163,35.07
1634885797179,30.25
1634885797194,26.04
1634885797210,22.45
1634885797226,19.33
1634885797241,16.5
1634885797257,13.75
1634885797272,10.9
1634885797288,7.84
1634885797304,4.55
1634885797319,1.12
1634885797335,-2.23
1634885797351,-5.29
1634885797366,-7.89
1634885797382,-9.98
1634885797397,-11.6
1634885797413,-12.86
1634885797429,-13.86
1634885797444,-14.79
1634885797460,-15.88
1634885797476,-17.35
1634885797491,-19.34
1634885797507,-21.8
1634885797522,-24.55
1634885797538,-27.39
1634885797554,-30.26
1634885797569,-33.25
1634885797585,-36.52
1634885797601,-40.08
1634885797616,-43.7
1634885797632,-46.89
1634885797647,-49.09
1634885797663,-49.93
1634885797679,-49.5
1634885797694,-48.3
1634885797710,-47.06
1634885797726,-46.37
1634885797741,-46.37
1634885797757,-46.65
1634885797772,-46.52
1634885797788,-45.48
1634885797804,-43.46
1634885797819,-40.93
1634885797835,-38.57
1634885797851,-36.79
1634885797866,-35.49
1634885797882,-34.02
1634885797897,-31.5
1634885797913,-27.24
1634885797929,-21.06
1634885797944,-13.32
1634885797960,-4.79
1634885797976,3.73
1634885797991,11.61
1634885798007,18.57
1634885798022,24.68
1634885798038,30.25
1634885798054,35.57
1634885798069,40.68
1634885798085,45.44
1634885798101,49.66
1634885798116,53.62
1634885798132,58.22
1634885798147,64.77
1634885798163,74.07
1634885798179,85.4
1634885798194,96.08
1634885798210,101.83
1634885798226,98.3
1634885798241,82.65
1634885798257,54.41
1634885798272,15.11
1634885798288,-33.08
1634885798304,-88.23
1634885798319,-148.5
1634885798335,-210.71
1634885798351,-269.36
1634885798366,-316.94
1634885798382,-346.2
1634885798397,-353.04
1634885798413,-338.35
1634885798429,-307.42
1634885798444,-267.09
1634885798460,-222.67
1634885798476,-176.37
1634885798491,-128.23
1634885798507,-78.49
1634885798522,-29.63
1634885798538,13.62
1634885798554,46.29
1634885798569,65.81
1634885798585,73.39
1634885798601,73.3
1634885798616,70.54
1634885798632,68.45
1634885798647,67.8
1634885798663,67.45
1634885798679,65.92
1634885798694,62.79
1634885798710,58.97
1634885798726,55.94
1634885798741,54.7
1634885798757,55.16
1634885798772,56.37
1634885798788,57.14
1634885798804,56.72
1634885798819,54.93
1634885798835,52.13
1634885798851,48.8
1634885798866,45.61
1634885798882,43.25
1634885798897,42.35
1634885798913,43.16
1634885798929,45.27
1634885798944,47.69
1634885798960,49.35
1634885798976,49.87
1634885798991,49.78
1634885799007,50.32
1634885799022,52.49
1634885799038,56.4
1634885799054,61.16
1634885799069,65.43
1634885799085,68.25
1634885799101,69.47
1634885799116,69.65
1634885799132,69.43
1634885799147,69.09
1634885799163,68.5
1634885799179,67.52
1634885799194,66.37
1634885799210,65.63
1634885799226,65.87
1634885799241,67.23
1634885799257,69.3
1634885799272,71.43
1634885799288,73.13
1634885799304,74.28
1634885799319,74.92
1634885799335,74.93
1634885799351,73.8
1634885799366,70.9
1634885799382,65.89
1634885799397,59.08
1634885799413,51.4
1634885799429,43.8
1634885799444,36.64
1634885799460,29.3
1634885799476,20.38
1634885799491,8.4
1634885799507,-7.36
1634885799522,-26.35
1634885799538,-46.76
1634885799554,-66.2
1634885799569,-82.47
1634885799585,-94.21
1634885799601,-101.19
1634885799616,-104.0
1634885799632,-103.61
1634885799647,-100.88
1634885799663,-96.42
1634885799679,-90.63
1634885799694,-83.99
1634885799710,-77.16
1634885799726,-70.83
1634885799741,-65.28
1634885799757,-60.02
1634885799772,-53.77
1634885799788,-44.93
1634885799804,-32.23
1634885799819,-15.35
1634885799835,4.87
1634885799851,26.73
1634885799866,48.21
1634885799882,67.64
1634885799897,84.08
1634885799913,97.49
1634885799929,108.59
1634885799944,118.72
1634885799960,129.31
1634885799976,141.35
1634885799991,154.96
1634885800007,169.2
1634885800022,182.35
1634885800038,192.46
1634885800054,197.94
1634885800069,197.96
1634885800085,192.59
1634885800101,182.72
1634885800116,169.94
1634885800132,156.18
1634885800147,143.12
1634885800163,131.6
1634885800179,121.22
1634885800194,110.57
1634885800210,98.04
1634885800226,82.76
1634885800241,65.16
1634885800257,46.78
1634885800272,29.48
1634885800288,14.53
1634885800304,2.18
1634885800319,-8.11
1634885800335,-17.22
1634885800351,-25.91
1634885800366,-34.75
1634885800382,-44.13
1634885800397,-54.23
1634885800413,-64.91
1634885800429,-75.55
1634885800444,-85.15
1634885800460,-92.62
1634885800476,-97.23
1634885800491,-98.57
1634885800507,-96.39
1634885800522,-90.16
1634885800538,-78.85
1634885800554,-61.12
1634885800569,-35.92
1634885800585,-3.19
1634885800601,35.49
1634885800616,76.72
1634885800632,115.84
1634885800647,148.06
1634885800663,169.75
1634885800679,179.59
1634885800694,178.57
1634885800710,169.21
1634885800726,154.17
1634885800741,135.03
1634885800757,112.09
1634885800772,84.98
1634885800788,53.83
1634885800804,19.72
1634885800819,-15.3
1634885800835,-49.36
1634885800851,-81.76
1634885800866,-113.54
1634885800882,-147.16
1634885800897,-185.85
1634885800913,-232.68
1634885800929,-289.58
1634885800944,-356.32
1634885800960,-429.42
1634885800976,-502.02
1634885800991,-564.94
1634885801007,-609.2
1634885801022,-629.05
1634885801038,-624.06
1634885801054,-599.2
1634885801069,-562.47
1634885801085,-521.64
1634885801101,-481.47
1634885801116,-443.07
1634885801132,-405.12
1634885801147,-366.1
1634885801163,-325.91
1634885801179,-285.9
1634885801194,-247.7
1634885801210,-211.88
1634885801226,-177.3
1634885801241,-141.74
1634885801257,-103.14
1634885801272,-60.49
1634885801288,-14.06
1634885801304,34.87
1634885801319,84.78
1634885801335,134.22
1634885801351,181.51
1634885801366,224.46
1634885801382,260.32
1634885801397,286.3
1634885801413,300.57
1634885801429,303.12
1634885801444,295.91
1634885801460,282.28
1634885801476,265.7
1634885801491,248.86
1634885801507,233.21
1634885801522,219.3
1634885801538,207.39
1634885801554,197.73
1634885801569,190.44
1634885801585,185.1
1634885801601,180.61
1634885801616,175.39
1634885801632,168.07
1634885801647,158.15
1634885801663,146.11
1634885801679,133.13
1634885801694,120.42
1634885801710,108.65
1634885801726,97.93
1634885801741,88.01
1634885801757,78.62
1634885801772,69.7
1634885801788,61.31
1634885801804,53.39
1634885801819,45.68
1634885801835,37.81
1634885801851,29.47
1634885801866,20.73
1634885801882,12.06
1634885801897,4.24
1634885801913,-1.95
1634885801929,-5.99
1634885801944,-7.78
1634885801960,-7.6
1634885801976,-6.09
1634885801991,-4.03
1634885802007,-2.19
1634885802022,-1.23
1634885802038,-1.51
1634885802054,-3.08
1634885802069,-5.61
1634885802085,-8.52
1634885802101,-11.0
1634885802116,-12.3
1634885802132,-11.91
1634885802147,-9.75
1634885802163,-6.33
1634885802179,-2.55
1634885802194,0.62
1634885802210,2.53
1634885802226,3.1
1634885802241,2.69
1634885802257,1.84
1634885802272,0.94
1634885802288,0.2
1634885802304,-0.28
1634885802319,-0.3
1634885802335,0.37
1634885802351,1.79
1634885802366,3.6
1634885802382,5.02
1634885802397,5.13
1634885802413,3.38
1634885802429,-0.04
1634885802444,-4.32
1634885802460,-8.44
1634885802476,-11.68
1634885802491,-13.84
1634885802507,-14.98
1634885802522,-15.04
1634885802538,-13.69
1634885802554,-10.52
1634885802569,-5.46
1634885802585,0.88
1634885802601,7.41
1634885802616,12.93
1634885802632,16.56
1634885802647,18.11
1634885802663,17.96
1634885802679,16.9
1634885802694,15.87
1634885802710,15.68
1634885802726,16.77
1634885802741,19.08
1634885802757,22.03
1634885802772,24.66
1634885802788,26.02
1634885802804,25.52
1634885802819,23.13
1634885802835,19.28
1634885802851,14.57
1634885802866,9.4
1634885802882,3.93
1634885802897,-1.85
1634885802913,-7.87
1634885802929,-13.81
1634885802944,-19.15
1634885802960,-23.41
1634885802976,-26.42
1634885802991,-28.44
1634885803007,-29.93
1634885803022,-31.24
1634885803038,-32.28
1634885803054,-32.53
1634885803069,-31.32
1634885803085,-28.35
1634885803101,-24.08
1634885803116,-19.64
1634885803132,-16.34
1634885803147,-14.82
1634885803163,-14.67
1634885803179,-14.47
1634885803194,-12.7
1634885803210,-8.57
1634885803226,-2.68
1634885803241,3.26
1634885803257,7.14
1634885803272,7.48
1634885803288,4.01
1634885803304,-2.36
1634885803319,-10.09
1634885803335,-17.66
1634885803351,-24.1
1634885803366,-29.04
1634885803382,-32.49
1634885803397,-34.57
1634885803413,-35.35
1634885803429,-34.97
1634885803444,-33.65
1634885803460,-31.77
1634885803476,-29.82
1634885803491,-28.2
1634885803507,-27.05
1634885803522,-26.16
1634885803538,-24.99
1634885803554,-22.93
1634885803569,-19.56
1634885803585,-14.79
1634885803601,-8.87
1634885803616,-2.25
1634885803632,4.56
1634885803647,11.14
1634885803663,17.16
1634885803679,22.33
1634885803694,26.48
1634885803710,29.56
1634885803726,31.82
1634885803741,33.68
1634885803757,35.6
1634885803772,37.71
1634885803788,39.6
1634885803804,40.38
1634885803819,39.11
1634885803835,35.36
1634885803851,29.63
1634885803866,23.29
1634885803882,17.99
1634885803897,14.88
1634885803913,14.07
1634885803929,14.6
1634885803944,14.98
1634885803960,14.02
1634885803976,11.25
1634885803991,7.05
1634885804007,2.24
1634885804022,-2.41
1634885804038,-6.63
1634885804054,-10.59
1634885804069,-14.69
1634885804085,-19.11
1634885804101,-23.67
1634885804116,-28.01
1634885804132,-31.82
1634885804147,-34.76
1634885804163,-36.35
1634885804179,-35.97
1634885804194,-32.86
1634885804210,-26.74
1634885804226,-18.16
1634885804241,-8.71
1634885804257,-0.84
1634885804272,2.85
1634885804288,0.91
1634885804304,-6.46
1634885804319,-17.72
1634885804335,-30.52
1634885804351,-42.74
1634885804366,-52.77
1634885804382,-59.54
1634885804397,-62.55
1634885804413,-61.74
1634885804429,-56.99
1634885804444,-48.08
1634885804460,-35.08
1634885804476,-18.2
1634885804491,1.5
1634885804507,22.11
1634885804522,40.82
1634885804538,56.08
1634885804554,65.31
1634885804569,67.24
1634885804585,63.74
1634885804601,57.77
1634885804616,53.91
1634885804632,54.41
1634885804647,58.41
1634885804663,64.12
1634885804679,68.6
1634885804694,69.62
1634885804710,67.11
1634885804726,62.85
1634885804741,58.62
1634885804757,55.37
1634885804772,52.12
1634885804788,47.24
1634885804804,39.63
1634885804819,29.16
1634885804835,16.92
1634885804851,4.9
1634885804866,-4.68
1634885804882,-10.74
1634885804897,-13.19
1634885804913,-13.46
1634885804929,-13.27
1634885804944,-14.13
1634885804960,-17.11
1634885804976,-22.41
1634885804991,-29.28
1634885805007,-35.95
1634885805022,-41.14
1634885805038,-40.61
1634885805054,-32.34
1634885805069,-16.7
1634885805085,3.4
1634885805101,23.4
1634885805116,39.44
1634885805132,47.32
1634885805148,48.21
1634885805163,44.73
1634885805179,39.89
1634885805194,35.83
1634885805210,33.67
1634885805226,34.89
1634885805241,38.71
1634885805257,42.58
1634885805273,42.96
1634885805288,37.18
1634885805304,24.17
1634885805319,5.68
1634885805335,-14.63
1634885805351,-32.44
1634885805366,-44.65
1634885805382,-50.78
1634885805398,-52.42
1634885805413,-52.03
1634885805429,-50.97
1634885805444,-49.27
1634885805460,-45.54
1634885805476,-38.29
1634885805491,-27.06
1634885805507,-12.99
1634885805523,1.38
1634885805538,13.29
1634885805554,20.81
1634885805569,23.81
1634885805585,23.67
1634885805601,22.8
1634885805616,23.6
1634885805632,27.35
1634885805648,33.57
1634885805663,39.79
1634885805679,42.25
1634885805694,36.77
1634885805710,19.85
1634885805726,-10.2
1634885805741,-52.0
1634885805757,-100.48
1634885805773,-147.73
1634885805788,-185.17
1634885805804,-206.42
1634885805819,-209.5
1634885805835,-197.64
1634885805851,-178.16
1634885805866,-159.84
1634885805882,-149.59
1634885805898,-149.88
1634885805913,-158.28
1634885805929,-169.02
1634885805944,-175.96
1634885805960,-175.32
1634885805976,-167.04
1634885805991,-154.2
1634885806007,-140.97
1634885806023,-130.17
1634885806038,-121.62
1634885806054,-112.31
1634885806069,-97.86
1634885806085,-74.74
1634885806101,-42.16
1634885806116,-2.25
1634885806132,40.83
1634885806148,82.58
1634885806163,119.51
1634885806179,149.69
1634885806194,172.68
1634885806210,189.06
1634885806226,199.78
1634885806241,205.59
1634885806257,207.12
1634885806273,205.1
1634885806288,200.68
1634885806304,195.61
1634885806319,191.93
1634885806335,191.43
1634885806351,194.91
1634885806366,201.83
1634885806382,210.4
1634885806398,218.38
1634885806413,223.92
1634885806429,226.23
1634885806444,225.69
1634885806460,223.46
1634885806476,220.74
1634885806491,218.02
1634885806507,214.69
1634885806523,209.16
1634885806538,199.25
1634885806554,182.95
1634885806569,158.91
1634885806585,126.61
1634885806601,86.2
1634885806616,38.27
1634885806632,-15.88
1634885806648,-73.77
1634885806663,-131.14
1634885806679,-182.19
1634885806694,-220.86
1634885806710,-242.69
1634885806726,-246.43
1634885806741,-234.53
1634885806757,-212.13
1634885806773,-185.16
1634885806788,-158.38
1634885806804,-134.41
1634885806819,-114.16
1634885806835,-97.93
1634885806851,-86.49
1634885806866,-81.05
1634885806882,-82.27
1634885806898,-88.99
1634885806913,-97.84
1634885806929,-104.17
1634885806944,-103.93
1634885806960,-95.69
1634885806976,-81.3
1634885806991,-64.93
1634885807007,-50.98
1634885807023,-41.83
1634885807038,-36.95
1634885807054,-33.56
1634885807069,-28.57
1634885807085,-20.33
1634885807101,-9.18
1634885807116,3.11
1634885807132,14.42
1634885807148,22.72
1634885807163,26.06
1634885807179,22.42
1634885807194,9.92
1634885807210,-12.11
1634885807226,-41.93
1634885807241,-75.07
1634885807257,-105.27
1634885807273,-126.77
1634885807288,-136.3
1634885807304,-133.97
1634885807319,-122.4
1634885807335,-104.7
1634885807351,-82.64
1634885807366,-56.07
1634885807382,-23.89
1634885807398,14.04
1634885807413,55.33
1634885807429,94.8
1634885807444,126.01
1634885807460,143.67
1634885807476,146.05
1634885807491,135.98
1634885807507,119.88
1634885807523,105.11
1634885807538,96.93
1634885807554,96.64
1634885807569,101.61
1634885807585,106.98
1634885807601,108.19
1634885807616,102.99
1634885807632,91.98
1634885807648,77.94
1634885807663,64.18
1634885807679,53.19
1634885807694,46.14
1634885807710,42.99
1634885807726,43.08
1634885807741,45.63
1634885807757,49.79
1634885807773,54.39
1634885807788,57.89
1634885807804,58.69
1634885807819,55.81
1634885807835,49.6
1634885807851,41.59
1634885807866,33.84
1634885807882,27.69
1634885807898,22.74
1634885807913,16.72
1634885807929,6.24
1634885807944,-11.69
1634885807960,-38.6
1634885807976,-74.08
1634885807991,-116.41
1634885808007,-163.46
1634885808023,-213.05
1634885808038,-262.67
1634885808054,-308.82
1634885808069,-347.06
1634885808085,-372.92
1634885808101,-383.52
1634885808116,-378.72
1634885808132,-361.3
1634885808148,-335.55
1634885808163,-305.46
1634885808179,-273.26
1634885808194,-239.18
1634885808210,-202.23
1634885808226,-161.71
1634885808241,-117.83
1634885808257,-71.62
1634885808273,-23.99
1634885808288,24.95
1634885808304,75.71
1634885808319,128.2
1634885808335,180.84
1634885808351,230.31
1634885808366,272.75
1634885808382,305.26
1634885808398,327.08
1634885808413,339.51
1634885808429,344.6
1634885808444,343.67
1634885808460,336.42
1634885808476,321.62
1634885808491,298.51
1634885808507,268.29
1634885808523,234.38
1634885808538,201.41
1634885808554,173.49
1634885808569,152.69
1634885808585,138.68
1634885808601,129.44
1634885808616,122.49
1634885808632,115.84
1634885808648,108.35
1634885808663,99.64
1634885808679,89.66
1634885808694,78.41
1634885808710,65.88
1634885808726,52.16
1634885808741,37.61
1634885808757,22.82
1634885808773,8.49
1634885808788,-4.72
1634885808804,-16.34
1634885808819,-26.14
1634885808835,-33.97
1634885808851,-39.71
1634885808866,-43.21
1634885808882,-44.37
1634885808898,-43.24
1634885808913,-40.21
1634885808929,-35.96
1634885808944,-31.34
1634885808960,-27.18
1634885808976,-23.93
1634885808991,-21.65
1634885809007,-20.02
1634885809023,-18.52
1634885809038,-16.77
1634885809054,-14.72
1634885809069,-12.88
1634885809085,-12.25
1634885809101,-14.15
1634885809116,-19.69
1634885809132,-29.03
1634885809148,-40.92
1634885809163,-52.65
1634885809179,-60.92
1634885809194,-63.21
1634885809210,-59.22
1634885809226,-51.3
1634885809241,-43.71
1634885809257,-40.86
1634885809273,-45.32
1634885809288,-56.81
1634885809304,-72.47
1634885809319,-87.98
1634885809335,-98.98
1634885809351,-102.17
1634885809366,-95.89
1634885809382,-80.26
1634885809398,-56.99
1634885809413,-29.19
1634885809429,-0.66
1634885809444,25.1
1634885809460,46.0
1634885809476,62.1
1634885809491,75.37
1634885809507,88.39
1634885809523,102.63
1634885809538,117.25
1634885809554,129.34
1634885809569,135.19
1634885809585,132.36
1634885809601,120.88
1634885809616,103.32
1634885809632,83.64
1634885809648,65.54
1634885809663,51.28
1634885809679,41.34
1634885809694,34.83
1634885809710,30.14
1634885809726,25.58
1634885809741,19.52
1634885809757,10.62
1634885809773,-1.9
1634885809788,-17.79
1634885809804,-35.68
1634885809819,-53.39
1634885809835,-68.53
1634885809851,-79.15
1634885809866,-83.78
1634885809882,-81.36
1634885809898,-71.13
1634885809913,-53.14
1634885809929,-29.13
1634885809944,-2.9
1634885809960,20.23
1634885809976,35.14
1634885809991,39.07
1634885810007,32.9
1634885810023,20.97
1634885810038,9.1
1634885810054,2.2
1634885810069,2.15
1634885810085,7.36
1634885810101,13.81
1634885810116,17.05
1634885810132,13.99
1634885810148,3.74
1634885810163,-12.68
1634885810179,-33.13
1634885810194,-55.25
1634885810210,-76.86
1634885810226,-96.04
1634885810241,-111.18
1634885810257,-121.05
1634885810273,-125.23
1634885810288,-124.35
1634885810304,-120.0
1634885810319,-114.17
1634885810335,-108.37
1634885810351,-103.01
1634885810366,-97.32
1634885810382,-90.05
1634885810398,-80.34
1634885810413,-68.52
1634885810429,-56.04
1634885810444,-44.95
1634885810460,-37.01
1634885810476,-32.94
1634885810491,-32.15
1634885810507,-32.92
1634885810523,-33.03
1634885810538,-30.38
1634885810554,-23.56
1634885810569,-12.14
1634885810585,2.86
1634885810601,18.77
1634885810616,31.34
1634885810632,35.61
1634885810648,27.82
1634885810663,7.42
1634885810679,-21.86
1634885810694,-52.97
1634885810710,-78.24
1634885810726,-92.52
1634885810741,-95.02
1634885810757,-88.69
1634885810773,-77.87
1634885810788,-65.63
1634885810804,-52.67
1634885810819,-38.15
1634885810835,-21.42
1634885810851,-3.23
1634885810866,14.59
1634885810882,30.48
1634885810898,44.26
1634885810913,57.15
1634885810929,70.67
1634885810944,85.21
1634885810960,99.59
1634885810976,111.59
1634885810991,119.2
1634885811007,121.5
1634885811023,118.87
1634885811038,112.46
1634885811054,103.57
1634885811069,93.27
1634885811085,82.16
1634885811101,70.62
1634885811116,58.92
1634885811132,47.4
1634885811148,36.74
1634885811163,27.96
1634885811179,22.19
1634885811194,20.13
1634885811210,21.51
1634885811226,25.08
1634885811241,29.35
1634885811257,33.49
1634885811273,38.01
1634885811288,44.78
1634885811304,56.15
1634885811319,74.01
1634885811335,99.18
1634885811351,131.38
1634885811366,169.59
1634885811382,212.16
1634885811398,256.62
1634885811413,299.34
1634885811429,335.8
1634885811444,361.52
1634885811460,373.69
1634885811476,372.33
1634885811491,360.51
1634885811507,343.16
1634885811523,325.18
1634885811538,309.8
1634885811554,297.96
1634885811569,288.86
1634885811585,281.02
1634885811601,273.23
1634885811616,264.91
1634885811632,255.88
1634885811648,246.02
1634885811663,235.07
1634885811679,222.71
1634885811694,208.74
1634885811710,193.17
1634885811726,176.18
1634885811741,158.02
1634885811757,138.89
1634885811773,118.92
1634885811788,98.31
1634885811804,77.37
1634885811819,56.59
1634885811835,36.44
1634885811851,17.3
1634885811866,-0.75
1634885811882,-17.84
1634885811898,-34.23
1634885811913,-50.02
1634885811929,-64.98
1634885811944,-78.59
1634885811960,-90.3
1634885811976,-99.94
1634885811991,-108.01
1634885812007,-115.77
1634885812023,-124.88
1634885812038,-136.86
1634885812054,-152.52
1634885812069,-171.71
1634885812085,-193.56
1634885812101,-217.01
1634885812116,-241.42
1634885812132,-267.06
1634885812148,-294.99
1634885812163,-326.86
1634885812179,-364.67
1634885812194,-410.59
1634885812210,-466.43
1634885812226,-532.61
1634885812241,-606.75
1634885812257,-682.89
1634885812273,-752.07
1634885812288,-804.66
1634885812304,-833.55
1634885812319,-836.7
1634885812335,-817.73
1634885812351,-784.11
1634885812366,-743.95
1634885812382,-703.11
1634885812398,-664.05
1634885812413,-626.63
1634885812429,-589.89
1634885812444,-553.57
1634885812460,-518.32
1634885812476,-485.0
1634885812491,-453.64
1634885812507,-423.19
1634885812523,-392.09
1634885812538,-359.25
1634885812554,-324.82
1634885812569,-290.09
1634885812585,-257.15
1634885812601,-227.67
1634885812616,-202.29
1634885812632,-180.36
1634885812648,-160.4
1634885812663,-140.77
1634885812679,-120.48
1634885812694,-99.58
1634885812710,-79.02
1634885812726,-60.09
1634885812741,-43.69
1634885812757,-29.9
1634885812773,-17.9
1634885812788,-6.41
1634885812804,5.73
1634885812819,18.99
1634885812835,33.01
1634885812851,46.85
1634885812866,59.5
1634885812882,70.46
1634885812898,80.03
1634885812913,89.13
1634885812929,98.9
1634885812944,110.08
1634885812960,122.72
1634885812976,136.19
1634885812991,149.56
1634885813007,162.1
1634885813023,173.7
1634885813038,184.9
1634885813054,196.67
1634885813069,210.09
1634885813085,226.07
1634885813101,245.19
1634885813116,267.44
1634885813132,291.86
1634885813148,316.23
1634885813163,337.26
1634885813179,351.39
1634885813194,356.13
1634885813210,351.19
1634885813226,338.8
1634885813241,322.87
1634885813257,307.3
1634885813273,294.41
1634885813288,284.31
1634885813304,275.47
1634885813319,266.1
1634885813335,255.5
1634885813351,244.45
1634885813366,234.72
1634885813382,227.9
1634885813398,224.6
1634885813413,224.19
1634885813429,225.39
1634885813444,226.92
1634885813460,227.96
1634885813476,228.21
1634885813491,227.61
1634885813507,226.01
1634885813523,222.99
1634885813538,218.05
1634885813554,210.88
1634885813569,201.57
1634885813585,190.66
1634885813601,179.03
1634885813616,167.48
1634885813632,156.47
1634885813648,145.98
1634885813663,135.57
1634885813679,124.63
1634885813694,112.71
1634885813710,99.67
1634885813726,85.84
1634885813741,71.9
1634885813757,58.71
1634885813773,47.08
1634885813788,37.63
1634885813804,30.68
1634885813819,26.21
1634885813835,23.93
1634885813851,23.35
1634885813866,23.86
1634885813882,24.96
1634885813898,26.34
1634885813913,27.84
1634885813929,29.36
1634885813944,30.71
1634885813960,31.56
1634885813976,31.5
1634885813991,30.2
1634885814007,27.58
1634885814023,23.87
1634885814038,19.51
1634885814054,15.0
1634885814069,10.74
1634885814085,6.9
1634885814101,3.55
1634885814116,0.64
1634885814132,-1.84
1634885814148,-3.97
1634885814163,-5.91
1634885814179,-7.89
1634885814194,-10.14
1634885814210,-12.72
1634885814226,-15.43
1634885814241,-17.91
1634885814257,-19.82
1634885814273,-21.05
1634885814288,-21.76
1634885814304,-22.23
1634885814319,-22.66
1634885814335,-22.96
1634885814351,-22.87
1634885814366,-22.14
1634885814382,-20.77
1634885814398,-19.06
1634885814413,-17.45
1634885814429,-16.28
1634885814444,-15.59
1634885814460,-15.09
1634885814476,-14.33
1634885814491,-12.92
1634885814507,-10.7
1634885814523,-7.75
1634885814538,-4.37
1634885814554,-0.91
1634885814569,2.36
1634885814585,5.27
1634885814601,7.76
1634885814616,9.86
1634885814632,11.64
1634885814648,13.22
1634885814663,14.74
1634885814679,16.35
1634885814694,18.18
1634885814710,20.26
1634885814726,22.55
1634885814741,24.9
1634885814757,27.19
1634885814773,29.32
1634885814788,31.31
1634885814804,33.34
1634885814819,35.69
1634885814835,38.56
1634885814851,41.94
1634885814866,45.55
1634885814882,48.88
1634885814898,51.35
1634885814913,52.57
1634885814929,52.43
1634885814944,51.1
1634885814960,48.85
1634885814976,45.81
1634885814991,41.84
1634885815007,36.4
1634885815023,28.77
1634885815038,18.41
1634885815054,5.36
1634885815069,-9.56
1634885815085,-24.88
1634885815101,-38.91
1634885815116,-50.28
1634885815132,-58.31
1634885815148,-63.0
1634885815163,-64.9
1634885815179,-64.78
1634885815194,-63.53
1634885815210,-62.15
1634885815226,-61.76
1634885815241,-63.36
1634885815257,-67.49
1634885815273,-73.8
1634885815288,-81.08
1634885815304,-87.66
1634885815319,-92.09
1634885815335,-93.72
1634885815351,-92.89
1634885815366,-90.59
1634885815382,-87.89
1634885815398,-85.46
1634885815413,-83.38
1634885815429,-81.35
1634885815444,-78.96
1634885815460,-75.89
1634885815476,-71.92
1634885815491,-66.89
1634885815507,-60.61
1634885815523,-53.07
1634885815538,-44.55
1634885815554,-35.8
1634885815569,-27.93
1634885815585,-22.05
1634885815601,-18.8
1634885815616,-17.92
1634885815632,-18.26
1634885815648,-18.2
1634885815663,-16.41
1634885815679,-12.39
1634885815694,-6.62
1634885815710,-0.08
1634885815726,6.28
1634885815741,12.06
1634885815757,17.46
1634885815773,22.93
1634885815788,28.74
1634885815804,34.72
1634885815819,40.36
1634885815835,45.23
1634885815851,49.31
1634885815866,53.13
1634885815882,57.43
1634885815898,62.73
1634885815913,68.91
1634885815929,75.22
1634885815944,80.53
1634885815960,83.91
1634885815976,85.03
1634885815991,84.33
1634885816007,82.79
1634885816023,81.4
1634885816038,80.73
1634885816054,80.65
1634885816069,80.44
1634885816085,79.21
1634885816101,76.33
1634885816116,71.78
1634885816132,66.17
1634885816148,60.5
1634885816163,55.69
1634885816179,52.28
1634885816194,50.35
1634885816210,49.75
1634885816226,50.41
1634885816241,52.58
1634885816257,56.59
1634885816273,62.46
1634885816288,69.56
1634885816304,76.86
1634885816319,83.46
1634885816335,89.16
1634885816351,94.4
1634885816366,99.52
1634885816382,103.98
1634885816398,105.96
1634885816413,103.11
1634885816429,93.89
1634885816444,78.75
1634885816460,60.16
1634885816476,41.5
1634885816491,25.51
1634885816507,13.04
1634885816523,3.0
1634885816538,-7.01
1634885816554,-19.69
1634885816569,-37.18
1634885816585,-60.46
1634885816601,-89.0
1634885816616,-120.66
1634885816632,-151.82
1634885816648,-178.4
1634885816663,-197.15
1634885816679,-206.7
1634885816694,-207.71
1634885816710,-202.05
1634885816726,-191.37
1634885816741,-176.22
1634885816757,-156.35
1634885816773,-131.82
1634885816788,-104.06
1634885816804,-76.03
1634885816819,-51.09
1634885816835,-31.47
1634885816851,-17.12
1634885816866,-5.85
1634885816882,5.51
1634885816898,19.39
1634885816913,36.3
1634885816929,54.45
1634885816944,70.77
1634885816960,82.11
1634885816976,86.55
1634885816991,83.97
1634885817007,75.8
1634885817023,64.31
1634885817038,51.61
1634885817054,39.08
1634885817069,27.19
1634885817085,15.75
1634885817101,4.48
1634885817116,-6.64
1634885817132,-17.28
1634885817148,-27.11
1634885817163,-36.21
1634885817179,-45.31
1634885817194,-55.58
1634885817210,-67.97
1634885817226,-82.49
1634885817241,-97.92
1634885817257,-112.14
1634885817273,-123.2
1634885817288,-130.35
1634885817304,-134.47
1634885817319,-137.6
1634885817335,-141.61
1634885817351,-147.1
1634885817366,-152.83
1634885817382,-156.37
1634885817398,-155.33
1634885817413,-148.49
1634885817429,-136.23
1634885817444,-120.09
1634885817460,-102.01
1634885817476,-83.48
1634885817491,-65.45
1634885817507,-48.37
1634885817523,-32.39
1634885817538,-17.4
1634885817554,-2.89
1634885817569,12.01
1634885817585,28.33
1634885817601,46.67
1634885817616,66.8
1634885817632,87.57
1634885817648,107.29
1634885817663,124.41
1634885817679,137.96
1634885817694,147.6
1634885817710,153.36
1634885817726,155.22
1634885817741,152.97
1634885817757,146.55
1634885817773,136.32
1634885817788,123.29
1634885817804,109.03
1634885817819,95.07
1634885817835,82.49
1634885817851,71.69
1634885817866,62.27
1634885817882,53.2
1634885817898,43.31
1634885817913,31.7
1634885817929,18.03
1634885817944,3.03
1634885817960,-12.03
1634885817976,-25.54
1634885817991,-36.0
1634885818007,-42.65
1634885818023,-45.73
1634885818038,-46.13
1634885818054,-45.03
1634885818069,-43.62
1634885818085,-42.35
1634885818101,-41.52
1634885818116,-41.14
1634885818132,-40.68
1634885818148,-39.5
1634885818163,-37.19
1634885818179,-33.43
1634885818194,-28.24
1634885818210,-21.9
1634885818226,-14.56
1634885818241,-7.07
1634885818257,-0.83
1634885818273,2.5
1634885818288,3.53
1634885818304,2.89
1634885818319,1.91
1634885818335,2.44
1634885818351,2.98
1634885818366,4.45
1634885818382,7.73
1634885818398,12.96
1634885818413,21.68
1634885818429,34.31
1634885818444,50.62
1634885818460,70.09
1634885818476,91.81
1634885818491,114.58
1634885818507,137.72
1634885818523,160.43
1634885818538,181.78
1634885818554,200.59
1634885818569,214.68
1634885818585,221.19
1634885818601,217.53
1634885818616,202.17
1634885818632,175.29
1634885818648,138.96
1634885818663,95.61
1634885818679,47.28
1634885818694,-4.56
1634885818710,-58.62
1634885818726,-112.55
1634885818741,-162.31
1634885818757,-202.66
1634885818773,-228.8
1634885818788,-238.23
1634885818804,-232.62
1634885818819,-217.87
1634885818835,-202.46
1634885818851,-194.96
1634885818866,-200.96
1634885818882,-220.88
1634885818898,-249.54
1634885818913,-278.1
1634885818929,-297.54
1634885818944,-302.49
1634885818960,-293.03
1634885818976,-273.51
1634885818991,-249.41
1634885819007,-223.95
1634885819023,-196.83
1634885819038,-165.79
1634885819054,-129.73
1634885819069,-90.92
1634885819085,-54.58
1634885819101,-26.12
1634885819116,-7.83
1634885819132,2.54
1634885819148,10.4
1634885819163,20.91
1634885819179,35.78
1634885819194,52.35
1634885819210,64.82
1634885819226,67.18
1634885819241,56.03
1634885819257,31.84
1634885819273,-1.32
1634885819288,-37.36
1634885819304,-70.23
1634885819319,-95.48
1634885819335,-110.66
1634885819351,-114.83
1634885819366,-107.93
1634885819382,-90.56
1634885819398,-64.57
1634885819413,-33.84
1634885819429,-3.86
1634885819444,20.14
1634885819460,35.74
1634885819476,44.83
1634885819491,52.52
1634885819507,63.95
1634885819523,80.82
1634885819538,100.06
1634885819554,115.51
1634885819569,121.53
1634885819585,116.45
1634885819601,103.46
1634885819616,88.88
1634885819632,79.13
1634885819648,78.26
1634885819663,87.1
1634885819679,103.91
1634885819694,125.75
1634885819710,149.43
1634885819726,171.94
1634885819741,190.75
1634885819757,203.99
1634885819773,210.59
1634885819788,210.33
1634885819804,203.41
1634885819819,189.97
1634885819835,169.96
1634885819851,143.38
1634885819866,110.65
1634885819882,73.01
1634885819898,32.49
1634885819913,-8.6
1634885819929,-48.15
1634885819944,-84.6
1634885819960,-116.8
1634885819976,-143.52
1634885819991,-163.14
1634885820007,-174.16
1634885820023,-176.5
1634885820038,-172.7
1634885820054,-167.91
1634885820069,-168.13
1634885820085,-177.23
1634885820101,-194.31
1634885820116,-213.25
1634885820132,-225.16
1634885820148,-222.24
1634885820163,-201.65
1634885820179,-166.97
1634885820194,-126.83
1634885820210,-91.86
1634885820226,-71.47
1634885820241,-71.91
1634885820257,-95.54
1634885820273,-140.73
1634885820288,-201.83
1634885820304,-269.35
1634885820319,-331.29
1634885820335,-375.64
1634885820351,-393.7
1634885820366,-382.59
1634885820382,-345.76
1634885820398,-291.09
1634885820413,-227.83
1634885820429,-163.64
1634885820444,-103.19
1634885820460,-48.32
1634885820476,0.64
1634885820491,43.87
1634885820507,81.7
1634885820523,114.82
1634885820538,144.69
1634885820554,173.5
1634885820569,203.62
1634885820585,236.63
1634885820601,272.56
1634885820616,309.55
1634885820632,343.97
1634885820648,371.51
1634885820663,388.59
1634885820679,393.67
1634885820694,387.85
1634885820710,374.44
1634885820726,357.62
1634885820741,340.85
1634885820757,325.82
1634885820773,312.4
1634885820788,299.46
1634885820804,285.94
1634885820819,271.63
1634885820835,257.04
1634885820851,242.86
1634885820866,229.23
1634885820882,215.58
1634885820898,200.88
1634885820913,184.45
1634885820929,166.43
1634885820944,147.94
1634885820960,130.68
1634885820976,116.21
1634885820991,105.11
1634885821007,96.84
1634885821023,89.8
1634885821038,81.92
1634885821054,71.34
1634885821069,56.9
1634885821085,38.44
1634885821101,16.9
1634885821116,-5.94
1634885821132,-27.79
1634885821148,-46.38
1634885821163,-59.89
1634885821179,-67.38
1634885821194,-68.81
1634885821210,-65.0
1634885821226,-57.33
1634885821241,-47.48
1634885821257,-37.12
1634885821273,-27.55
1634885821288,-19.42
1634885821304,-12.66
1634885821319,-6.63
1634885821335,-0.57
1634885821351,5.79
1634885821366,11.9
1634885821382,16.48
1634885821398,18.03
1634885821413,15.6
1634885821429,9.19
1634885821444,-0.31
1634885821460,-11.58
1634885821476,-23.33
1634885821491,-34.57
1634885821507,-44.68
1634885821523,-53.19
1634885821538,-59.82
1634885821554,-64.71
1634885821569,-68.59
1634885821585,-72.79
1634885821601,-78.62
1634885821616,-86.59
1634885821632,-95.85
1634885821648,-104.29
1634885821663,-109.51
1634885821679,-109.97
1634885821694,-105.84
1634885821710,-98.91
1634885821726,-91.54
1634885821741,-85.52
1634885821757,-81.2
1634885821773,-77.65
1634885821788,-73.41
1634885821804,-67.56
1634885821820,-60.22
1634885821835,-52.41
1634885821851,-45.33
1634885821866,-39.57
1634885821882,-34.7
1634885821898,-29.59
1634885821913,-23.07
1634885821929,-14.6
1634885821945,-4.59
1634885821960,5.82
1634885821976,15.36
1634885821991,23.37
1634885822007,30.02
1634885822023,36.21
1634885822038,42.87
1634885822054,50.36
1634885822070,58.2
1634885822085,65.24
1634885822101,70.3
1634885822116,72.76
1634885822132,72.83
1634885822148,71.42
1634885822163,69.66
1634885822179,68.33
1634885822195,67.51
1634885822210,66.6
1634885822226,64.78
1634885822241,61.62
1634885822257,57.53
1634885822273,53.75
1634885822288,51.89
1634885822304,53.11
1634885822320,57.6
1634885822335,64.46
1634885822351,72.05
1634885822366,78.75
1634885822382,83.61
1634885822398,86.62
1634885822413,88.72
1634885822429,91.58
1634885822445,97.16
1634885822460,107.01
1634885822476,121.49
1634885822491,138.99
1634885822507,155.75
1634885822523,166.67
1634885822538,166.93
1634885822554,153.85
1634885822570,127.91
1634885822585,92.53
1634885822601,52.45
1634885822616,11.81
1634885822632,-27.19
1634885822648,-64.52
1634885822663,-101.68
1634885822679,-140.65
1634885822695,-183.1
1634885822710,-229.85
1634885822726,-280.48
1634885822741,-332.86
1634885822757,-382.97
1634885822773,-425.18
1634885822788,-453.48
1634885822804,-463.14
1634885822820,-452.26
1634885822835,-422.2
1634885822851,-377.07
1634885822866,-322.41
1634885822882,-263.84
1634885822898,-206.29
1634885822913,-153.66
1634885822929,-108.72
1634885822945,-72.98
1634885822960,-46.44
1634885822976,-27.61
1634885822991,-13.71
1634885823007,-1.43
1634885823023,12.13
1634885823038,28.63
1634885823054,48.05
1634885823070,68.71
1634885823085,88.08
1634885823101,103.75
1634885823116,114.34
1634885823132,120.03
1634885823148,122.34
1634885823163,123.34
1634885823179,124.67
1634885823195,126.88
1634885823210,129.4
1634885823226,131.18
1634885823241,131.42
1634885823257,130.09
1634885823273,127.66
1634885823288,124.69
1634885823304,121.24
1634885823320,116.86
1634885823335,110.89
1634885823351,103.0
1634885823366,93.57
1634885823382,83.58
1634885823398,74.18
1634885823413,66.2
1634885823429,59.88
1634885823445,55.02
1634885823460,51.29
1634885823476,48.55
1634885823491,46.93
1634885823507,46.63
1634885823523,47.7
1634885823538,49.99
1634885823554,53.28
1634885823570,57.45
1634885823585,62.6
1634885823601,68.88
1634885823616,76.26
1634885823632,84.3
1634885823648,92.2
1634885823663,99.08
1634885823679,104.42
1634885823695,108.22
1634885823710,111.03
1634885823726,113.5
1634885823741,115.9
1634885823757,117.72
1634885823773,117.64
1634885823788,113.97
1634885823804,105.36
1634885823820,91.38
1634885823835,72.77
1634885823851,51.17
1634885823866,28.43
1634885823882,6.06
1634885823898,-15.08
1634885823913,-34.63
1634885823929,-52.4
1634885823945,-68.04
1634885823960,-80.96
1634885823976,-90.54
1634885823991,-96.43
1634885824007,-98.75
1634885824023,-98.0
1634885824038,-95.04
1634885824054,-90.75
1634885824070,-85.93
1634885824085,-81.2
1634885824101,-76.87
1634885824116,-73.01
1634885824132,-69.43
1634885824148,-65.84
1634885824163,-61.93
1634885824179,-57.59
1634885824195,-52.94
1634885824210,-48.3
1634885824226,-44.12
1634885824241,-40.79
1634885824257,-38.62
1634885824273,-37.73
1634885824288,-38.07
1634885824304,-39.36
1634885824320,-41.17
1634885824335,-42.94
1634885824351,-44.12
1634885824366,-44.33
1634885824382,-43.52
1634885824398,-42.0
1634885824413,-40.26
1634885824429,-38.74
1634885824445,-37.63
1634885824460,-36.72
1634885824476,-35.6
1634885824491,-33.9
1634885824507,-31.62
1634885824523,-29.2
1634885824538,-27.27
1634885824554,-26.27
1634885824570,-26.06
1634885824585,-25.75
1634885824601,-24.02
1634885824616,-19.56
1634885824632,-11.61
1634885824648,-0.26
1634885824663,13.57
1634885824679,28.5
1634885824695,43.12
1634885824710,56.31
1634885824726,67.39
1634885824741,76.05
1634885824757,82.12
1634885824773,85.47
1634885824788,86.15
1634885824804,84.52
1634885824820,81.5
1634885824835,78.44
1634885824851,76.71
1634885824866,77.15
1634885824882,79.7
1634885824898,83.41
1634885824913,86.89
1634885824929,88.88
1634885824945,88.59
1634885824960,85.63
1634885824976,79.62
1634885824991,70.03
1634885825007,56.35
1634885825023,38.61
1634885825038,17.92
1634885825054,-3.5
1634885825070,-22.79
1634885825085,-37.47
1634885825101,-46.04
1634885825116,-48.29
1634885825132,-44.92
1634885825148,-37.01
1634885825163,-25.72
1634885825179,-12.16
1634885825195,2.41
1634885825210,16.63
1634885825226,29.16
1634885825241,38.86
1634885825257,44.99
1634885825273,47.19
1634885825288,45.44
1634885825304,39.97
1634885825320,31.28
1634885825335,20.0
1634885825351,6.75
1634885825366,-8.08
1634885825382,-24.25
1634885825398,-41.29
1634885825413,-58.03
1634885825429,-72.47
1634885825445,-82.28
1634885825460,-85.97
1634885825476,-83.94
1634885825491,-78.63
1634885825507,-73.63
1634885825523,-71.94
1634885825538,-74.48
1634885825554,-79.74
1634885825570,-84.67
1634885825585,-86.37
1634885825601,-83.44
1634885825616,-76.44
1634885825632,-67.29
1634885825648,-58.12
1634885825663,-50.41
1634885825679,-44.7
1634885825695,-40.85
1634885825710,-38.45
1634885825726,-37.14
1634885825741,-36.57
1634885825757,-36.22
1634885825773,-35.42
1634885825788,-33.31
1634885825804,-29.18
1634885825820,-22.91
1634885825835,-15.09
1634885825851,-7.07
1634885825866,-0.45
1634885825882,3.53
1634885825898,4.54
1634885825913,3.31
1634885825929,1.15
1634885825945,-0.71
1634885825960,-1.79
1634885825976,-2.55
1634885825991,-3.92
1634885826007,-6.6
1634885826023,-10.41
1634885826038,-14.3
1634885826054,-16.95
1634885826070,-17.58
1634885826085,-16.53
1634885826101,-15.04
1634885826116,-14.53
1634885826132,-15.69
1634885826148,-18.02
1634885826163,-20.11
1634885826179,-20.42
1634885826195,-18.12
1634885826210,-13.54
1634885826226,-7.91
1634885826241,-2.65
1634885826257,1.28
1634885826273,3.64
1634885826288,4.73
1634885826304,4.91
1634885826320,4.35
1634885826335,3.05
1634885826351,1.05
1634885826366,-1.32
1634885826382,-3.58
1634885826398,-5.28
1634885826413,-6.25
1634885826429,-6.69
1634885826445,-6.95
1634885826460,-7.34
1634885826476,-7.99
1634885826491,-8.86
1634885826507,-9.85
1634885826523,-10.95
1634885826538,-12.14
1634885826554,-13.43
1634885826570,-14.82
1634885826585,-16.33
1634885826601,-18.02
1634885826616,-19.93
1634885826632,-21.92
1634885826648,-23.62
1634885826663,-24.51
1634885826679,-24.11
1634885826695,-22.33
1634885826710,-19.56
1634885826726,-16.62
1634885826741,-14.33
1634885826757,-13.1
1634885826773,-12.62
1634885826788,-11.88
1634885826804,-9.64
1634885826820,-4.95
1634885826835,2.32
1634885826851,11.5
1634885826866,21.43
1634885826882,31.01
1634885826898,39.46
1634885826913,46.36
1634885826929,51.53
1634885826945,54.99
1634885826960,57.15
1634885826976,59.0
1634885826991,61.95
1634885827007,67.27
1634885827023,75.3
1634885827038,85.09
1634885827054,94.63
1634885827070,101.81
1634885827085,105.45
1634885827101,105.87
1634885827116,104.5
1634885827132,102.89
1634885827148,101.83
1634885827163,101.04
1634885827179,99.73
1634885827195,97.34
1634885827210,94.07
1634885827226,90.68
1634885827241,87.96
1634885827257,86.1
1634885827273,84.63
1634885827288,82.77
1634885827304,79.87
1634885827320,75.77
1634885827335,70.7
1634885827351,64.91
1634885827366,58.42
1634885827382,51.0
1634885827398,42.35
1634885827413,32.41
1634885827429,21.46
1634885827445,9.96
1634885827460,-1.7
1634885827476,-13.31
1634885827491,-24.88
1634885827507,-36.41
1634885827523,-47.82
1634885827538,-58.88
1634885827554,-69.23
1634885827570,-78.5
1634885827585,-86.28
1634885827601,-92.24
1634885827616,-96.14
1634885827632,-97.97
1634885827648,-97.96
1634885827663,-96.56
1634885827679,-94.26
1634885827695,-91.57
1634885827710,-88.95
1634885827726,-86.94
1634885827741,-86.15
1634885827757,-87.09
1634885827773,-89.78
1634885827788,-93.59
1634885827804,-97.22
1634885827820,-99.1
1634885827835,-98.07
1634885827851,-93.88
1634885827866,-87.43
1634885827882,-80.48
1634885827898,-75.07
1634885827913,-72.75
1634885827929,-74.08
1634885827945,-78.39
1634885827960,-83.82
1634885827976,-87.84
1634885827991,-87.91
1634885828007,-82.25
1634885828023,-70.48
1634885828038,-53.89
1634885828054,-35.14
1634885828070,-17.53
1634885828085,-3.99
1634885828101,3.79
1634885828116,5.79
1634885828132,3.62
1634885828148,-0.13
1634885828163,-2.76
1634885828179,-2.24
1634885828195,2.46
1634885828210,11.37
1634885828226,23.96
1634885828241,39.56
1634885828257,57.53
1634885828273,77.17
1634885828288,97.41
1634885828304,116.62
1634885828320,132.65
1634885828335,143.28
1634885828351,146.67
1634885828366,142.06
1634885828382,130.06
1634885828398,112.72
1634885828413,93.19
1634885828429,75.04
1634885828445,61.44
1634885828460,54.32
1634885828476,53.93
1634885828491,59.01
1634885828507,67.45
1634885828523,77.12
1634885828538,86.34
1634885828554,93.95
1634885828570,98.87
1634885828585,99.8
1634885828601,95.09
1634885828616,83.44
1634885828632,64.58
1634885828648,39.93
1634885828663,12.42
1634885828679,-14.34
1634885828695,-37.29
1634885828710,-55.11
1634885828726,-68.51
1634885828741,-79.6
1634885828757,-90.43
1634885828773,-101.46
1634885828788,-110.77
1634885828804,-114.49
1634885828820,-108.53
1634885828835,-90.75
1634885828851,-62.62
1634885828866,-29.37
1634885828882,1.69
1634885828898,23.78
1634885828913,33.28
1634885828929,30.84
1634885828945,20.66
1634885828960,8.29
1634885828976,-1.84
1634885828991,-7.86
1634885829007,-10.39
1634885829023,-11.28
1634885829038,-12.14
1634885829054,-13.55
1634885829070,-15.37
1634885829085,-17.55
1634885829101,-20.81
1634885829116,-26.54
1634885829132,-35.99
1634885829148,-49.24
1634885829163,-64.86
1634885829179,-80.35
1634885829195,-93.18
1634885829210,-101.8
1634885829226,-106.12
1634885829241,-107.25
1634885829257,-106.77
1634885829273,-106.1
1634885829288,-106.04
1634885829304,-106.73
1634885829320,-107.77
1634885829335,-108.42
1634885829351,-107.75
1634885829366,-104.96
1634885829382,-99.66
1634885829398,-92.13
1634885829413,-83.46
1634885829429,-75.22
1634885829445,-68.92
1634885829460,-65.42
1634885829476,-64.6
1634885829491,-65.44
1634885829507,-66.57
1634885829523,-66.93
1634885829538,-66.2
1634885829554,-64.65
1634885829570,-62.62
1634885829585,-59.83
1634885829601,-55.3
1634885829616,-47.77
1634885829632,-36.56
1634885829648,-22.14
1634885829663,-6.05
1634885829679,9.79
1634885829695,23.99
1634885829710,36.21
1634885829726,46.89
1634885829741,56.54
1634885829757,64.99
1634885829773,71.4
1634885829788,75.01
1634885829804,76.22
1634885829820,76.95
1634885829835,80.11
1634885829851,88.09
1634885829866,101.48
1634885829882,118.46
1634885829898,135.47
1634885829913,148.5
1634885829929,154.43
1634885829945,151.66
1634885829960,140.11
1634885829976,120.64
1634885829991,94.61
1634885830007,63.74
1634885830023,30.21
1634885830038,-3.31
1634885830054,-33.94
1634885830070,-59.21
1634885830085,-77.69
1634885830101,-89.23
1634885830116,-94.64
1634885830132,-95.22
1634885830148,-92.27
1634885830163,-86.81
1634885830179,-79.5
1634885830195,-70.6
1634885830210,-59.86
1634885830226,-46.49
1634885830241,-29.68
1634885830257,-9.55
1634885830273,11.87
1634885830288,30.46
1634885830304,41.17
1634885830320,40.31
1634885830335,27.7
1634885830351,7.47
1634885830366,-13.26
1634885830382,-27.35
1634885830398,-30.55
1634885830413,-23.0
1634885830429,-8.32
1634885830445,8.68
1634885830460,24.4
1634885830476,37.58
1634885830491,48.79
1634885830507,59.08
1634885830523,68.69
1634885830538,76.72
1634885830554,81.79
1634885830570,82.91
1634885830585,80.17
1634885830601,74.65
1634885830616,67.95
1634885830632,61.46
1634885830648,55.84
1634885830663,50.92
1634885830679,45.95
1634885830695,40.07
1634885830710,32.67
1634885830726,23.77
1634885830741,13.92
1634885830757,3.96
1634885830773,-5.35
1634885830788,-13.69
1634885830804,-21.24
1634885830820,-28.47
1634885830835,-35.67
1634885830851,-42.7
1634885830866,-48.8
1634885830882,-53.0
1634885830898,-54.52
1634885830913,-53.18
1634885830929,-49.53
1634885830945,-44.55
1634885830960,-39.2
1634885830976,-34.12
1634885830991,-29.53
1634885831007,-25.42
1634885831023,-21.76
1634885831038,-18.67
1634885831054,-16.35
1634885831070,-14.96
1634885831085,-14.52
1634885831101,-14.83
1634885831116,-15.6
1634885831132,-16.44
1634885831148,-16.98
1634885831163,-16.94
1634885831179,-16.35
1634885831195,-15.52
1634885831210,-15.06
1634885831226,-15.61
1634885831241,-17.48
1634885831257,-20.55
1634885831273,-24.29
1634885831288,-28.02
1634885831304,-31.17
1634885831320,-33.39
1634885831335,-34.44
1634885831351,-34.02
1634885831366,-31.78
1634885831382,-27.43
1634885831398,-21.06
1634885831413,-13.16
1634885831429,-4.55
1634885831445,3.99
1634885831460,12.01
1634885831476,19.59
1634885831491,27.15
1634885831507,35.12
1634885831523,43.67
1634885831538,52.51
1634885831554,60.99
1634885831570,68.38
1634885831585,74.14
1634885831601,78.12
1634885831616,80.52
1634885831632,81.76
1634885831648,82.24
1634885831663,82.25
1634885831679,81.93
1634885831695,81.37
1634885831710,80.63
1634885831726,79.83
1634885831741,78.98
1634885831757,78.02
1634885831773,76.72
1634885831788,74.8
1634885831804,72.02
1634885831820,68.23
1634885831835,63.47
1634885831851,58.0
1634885831866,52.22
1634885831882,46.72
1634885831898,42.06
1634885831913,38.69
1634885831929,36.75
1634885831945,36.08
1634885831960,36.26
1634885831976,36.78
1634885831991,37.24
1634885832007,37.36
1634885832023,36.95
1634885832038,35.84
1634885832054,33.84
1634885832070,30.73
1634885832085,26.45
1634885832101,21.06
1634885832116,14.71
1634885832132,7.52
1634885832148,-0.47
1634885832163,-9.24
1634885832179,-18.64
1634885832195,-28.17
1634885832210,-37.02
1634885832226,-44.2
1634885832241,-48.88
1634885832257,-50.75
1634885832273,-50.07
1634885832288,-47.65
1634885832304,-44.41
1634885832320,-41.14
1634885832335,-38.27
1634885832351,-35.87
1634885832366,-33.73
1634885832382,-31.54
1634885832398,-29.0
1634885832413,-25.89
1634885832429,-22.12
1634885832445,-17.77
1634885832460,-13.16
1634885832476,-8.77
1634885832491,-5.17
1634885832507,-2.81
1634885832523,-1.93
1634885832538,-2.31
1634885832554,-3.41
1634885832570,-4.45
1634885832585,-4.76
1634885832601,-4.0
1634885832616,-2.27
1634885832632,-0.04
1634885832648,2.11
1634885832663,3.73
1634885832679,4.61
1634885832695,4.73
1634885832710,4.22
1634885832726,3.17
1634885832741,1.68
1634885832757,-0.06
1634885832773,-1.77
1634885832788,-3.1
1634885832804,-3.79
1634885832820,-3.77
1634885832835,-3.27
1634885832851,-2.68
1634885832866,-2.34
1634885832882,-2.51
1634885832898,-3.18
1634885832913,-4.24
1634885832929,-5.44
1634885832945,-6.49
1634885832960,-7.05
1634885832976,-6.79
1634885832991,-5.49
1634885833007,-3.09
1634885833023,0.2
1634885833038,3.97
1634885833054,7.68
1634885833070,10.8
1634885833085,12.9
1634885833101,13.82
1634885833116,13.61
1634885833132,12.49
1634885833148,10.83
1634885833163,8.96
1634885833179,7.22
1634885833195,5.8
1634885833210,4.83
1634885833226,4.34
1634885833241,4.27
1634885833257,4.39
1634885833273,4.3
1634885833288,3.57
1634885833304,2.0
1634885833320,-0.15
1634885833335,-2.16
1634885833351,-3.07
1634885833366,-2.18
1634885833382,0.5
1634885833398,4.23
1634885833413,7.88
1634885833429,10.51
1634885833445,11.84
1634885833460,12.43
1634885833476,13.25
1634885833491,15.2
1634885833507,18.61
1634885833523,23.17
1634885833538,28.18
1634885833554,32.86
1634885833570,36.66
1634885833585,39.23
1634885833601,40.35
1634885833616,39.92
1634885833632,37.99
1634885833648,34.76
1634885833663,30.54
1634885833679,25.62
1634885833695,20.06
1634885833710,13.8
1634885833726,6.71
1634885833741,-1.17
1634885833757,-9.54
1634885833773,-17.86
1634885833788,-25.54
1634885833804,-32.12
1634885833820,-37.36
1634885833835,-41.28
1634885833851,-44.08
1634885833866,-45.99
1634885833882,-47.31
1634885833898,-48.41
1634885833913,-49.64
1634885833929,-51.23
1634885833945,-53.16
1634885833960,-55.11
1634885833976,-56.59
1634885833991,-57.23
1634885834007,-57.02
1634885834023,-56.28
1634885834038,-55.58
1634885834054,-55.33
1634885834070,-55.64
1634885834085,-56.19
1634885834101,-56.44
1634885834116,-55.84
1634885834132,-54.05
1634885834148,-50.98
1634885834163,-46.76
1634885834179,-41.59
1634885834195,-35.8
1634885834210,-29.81
1634885834226,-24.18
1634885834241,-19.48
1634885834257,-16.03
1634885834273,-13.76
1634885834288,-12.12
1634885834304,-10.19
1634885834320,-7.02
1634885834335,-1.98
1634885834351,5.05
1634885834366,13.7
1634885834382,23.28
1634885834398,33.13
1634885834413,42.87
1634885834429,52.34
1634885834445,61.41
1634885834460,69.67
1634885834476,76.34
1634885834491,80.47
1634885834507,81.51
1634885834523,79.75
1634885834538,76.34
1634885834554,72.9
1634885834570,70.72
1634885834585,70.07
1634885834601,70.13
1634885834616,69.41
1634885834632,66.54
1634885834648,60.98
1634885834663,53.29
1634885834679,44.8
1634885834695,37.02
1634885834710,31.12
1634885834726,27.6
1634885834741,26.31
1634885834757,26.57
1634885834773,27.35
1634885834788,27.73
1634885834804,27.13
1634885834820,25.53
1634885834835,23.53
1634885834851,22.15
1634885834866,22.47
1634885834882,25.3
1634885834898,30.95
1634885834913,39.08
1634885834929,48.68
1634885834945,58.22
1634885834960,65.96
1634885834976,70.51
1634885834991,71.47
1634885835007,69.56
1634885835023,66.4
1634885835038,63.63
1634885835054,62.13
1634885835070,61.73
1634885835085,61.41
1634885835101,60.11
1634885835116,57.19
1634885835132,52.49
1634885835148,45.92
1634885835163,37.28
1634885835179,26.36
1634885835195,13.51
1634885835210,-0.08
1634885835226,-12.58
1634885835241,-22.11
1634885835257,-27.92
1634885835273,-31.01
1634885835288,-34.13
1634885835304,-41.06
1634885835320,-55.38
1634885835335,-79.14
1634885835351,-111.7
1634885835366,-149.53
1634885835382,-186.9
1634885835398,-217.72
1634885835413,-237.53
1634885835429,-244.89
1634885835445,-241.47
1634885835460,-230.68
1634885835476,-215.9
1634885835491,-199.18
1634885835507,-181.15
1634885835523,-161.94
1634885835538,-142.18
1634885835554,-123.29
1634885835570,-106.89
1634885835585,-93.77
1634885835601,-83.38
1634885835616,-74.07
1634885835632,-64.06
1634885835648,-52.36
1634885835663,-39.19
1634885835679,-25.52
1634885835695,-12.28
1634885835710,0.06
1634885835726,11.65
1634885835741,22.84
1634885835757,33.77
1634885835773,44.27
1634885835788,53.96
1634885835804,62.6
1634885835820,70.15
1634885835835,76.59
1634885835851,81.66
1634885835866,84.78
1634885835882,85.21
1634885835898,82.61
1634885835913,77.33
1634885835929,70.47
1634885835945,63.4
1634885835960,57.09
1634885835976,51.66
1634885835991,46.42
1634885836007,40.42
1634885836023,33.13
1634885836038,24.83
1634885836054,16.58
1634885836070,9.75
1634885836085,5.35
1634885836101,3.6
1634885836116,3.78
1634885836132,4.48
1634885836148,4.09
1634885836163,1.31
1634885836179,-4.34
1634885836195,-12.47
1634885836210,-21.98
1634885836226,-31.45
1634885836241,-39.51
1634885836257,-45.1
1634885836273,-47.72
1634885836288,-47.54
1634885836304,-45.77
1634885836320,-44.48
1634885836335,-46.2
1634885836351,-52.95
1634885836366,-65.0
1634885836382,-80.21
1634885836398,-94.18
1634885836413,-101.72
1634885836429,-98.8
1634885836445,-84.3
1634885836460,-60.29
1634885836476,-31.2
1634885836491,-2.05
1634885836507,23.23
1634885836523,42.61
1634885836538,55.99
1634885836554,64.26
1634885836570,68.5
1634885836585,69.01
1634885836601,65.84
1634885836616,59.3
1634885836632,50.41
1634885836648,40.97
1634885836663,33.13
1634885836679,28.65
1634885836695,27.61
1634885836710,28.16
1634885836726,26.28
1634885836741,18.23
1634885836757,2.35
1634885836773,-19.8
1634885836788,-43.95
1634885836804,-65.22
1634885836820,-79.99
1634885836835,-88.34
1634885836851,-93.3
1634885836866,-100.24
1634885836882,-112.97
1634885836898,-131.96
1634885836913,-154.27
1634885836929,-175.13
1634885836945,-190.59
1634885836960,-198.51
1634885836976,-200.19
1634885836991,-198.49
1634885837007,-197.69
1634885837023,-200.36
1634885837038,-206.97
1634885837054,-216.35
1634885837070,-226.32
1634885837085,-234.97
1634885837101,-240.31
1634885837116,-242.33
1634885837132,-231.3
1634885837148,-202.86
1634885837163,-158.68
1634885837179,-106.58
1634885837195,-56.75
1634885837210,-15.78
1634885837226,9.8
1634885837241,25.81
1634885837257,39.25
1634885837273,54.95
1634885837288,72.91
1634885837304,91.06
1634885837320,108.56
1634885837335,123.74
1634885837351,135.64
1634885837366,143.9
1634885837382,149.6
1634885837398,152.97
1634885837413,154.39
1634885837429,153.14
1634885837445,148.83
1634885837460,141.75
1634885837476,132.88
1634885837491,124.11
1634885837507,117.31
1634885837523,114.31
1634885837538,114.89
1634885837554,117.71
1634885837570,120.35
1634885837585,121.13
1634885837601,119.78
1634885837616,117.12
1634885837632,114.76
1634885837648,113.89
1634885837663,115.21
1634885837679,117.97
1634885837695,121.08
1634885837710,123.33
1634885837726,124.14
1634885837741,123.42
1634885837757,121.31
1634885837773,118.19
1634885837788,114.42
1634885837804,110.51
1634885837820,106.51
1634885837835,102.17
1634885837851,96.86
1634885837866,89.97
1634885837882,81.28
1634885837898,71.13
1634885837913,60.42
1634885837929,50.16
1634885837945,40.99
1634885837960,32.76
1634885837976,24.84
1634885837991,16.58
1634885838007,7.73
1634885838023,-1.54
1634885838038,-10.75
1634885838054,-19.44
1634885838070,-27.23
1634885838085,-33.86
1634885838101,-39.05
1634885838116,-42.55
1634885838132,-44.22
1634885838148,-44.12
1634885838163,-42.56
1634885838179,-39.92
1634885838195,-36.49
1634885838210,-32.42
1634885838226,-27.74
1634885838241,-22.6
1634885838257,-17.33
1634885838273,-12.44
1634885838288,-8.41
1634885838304,-5.46
1634885838320,-3.4
1634885838335,-1.71
1634885838351,0.36
1634885838366,3.42
1634885838382,7.8
1634885838398,13.35
1634885838413,19.43
1634885838429,25.17
1634885838445,29.68
1634885838460,32.45
1634885838476,33.45
1634885838492,33.09
1634885838507,31.93
1634885838523,30.37
1634885838538,28.49
1634885838554,26.06
1634885838570,22.76
1634885838585,18.42
1634885838601,13.08
1634885838617,6.92
1634885838632,0.12
1634885838648,-7.16
1634885838663,-14.72
1634885838679,-22.21
1634885838695,-29.09
1634885838710,-34.76
1634885838726,-38.75
1634885838742,-40.92
1634885838757,-41.47
1634885838773,-40.83
1634885838788,-39.39
1634885838804,-37.5
1634885838820,-35.41
1634885838835,-33.37
1634885838851,-31.62
1634885838867,-30.34
1634885838882,-29.47
1634885838898,-28.76
1634885838913,-27.8
1634885838929,-26.31
1634885838945,-24.3
1634885838960,-22.11
1634885838976,-20.17
1634885838992,-18.81
1634885839007,-18.1
1634885839023,-17.83
1634885839038,-17.66
1634885839054,-17.4
1634885839070,-17.0
1634885839085,-16.63
1634885839101,-16.48
1634885839117,-16.67
1634885839132,-17.15
1634885839148,-17.74
1634885839163,-18.18
1634885839179,-18.21
1634885839195,-17.62
1634885839210,-16.26
1634885839226,-14.04
1634885839242,-10.98
1634885839257,-7.2
1634885839273,-2.92
1634885839288,1.59
1634885839304,6.09
1634885839320,10.36
1634885839335,14.2
1634885839351,17.42
1634885839367,19.86
1634885839382,21.49
1634885839398,22.51
1634885839413,23.31
1634885839429,24.28
1634885839445,25.66
1634885839460,27.34
1634885839476,28.88
1634885839492,29.81
1634885839507,29.84
1634885839523,29.09
1634885839538,28.02
1634885839554,27.22
1634885839570,27.15
1634885839585,27.92
1634885839601,29.23
1634885839617,30.53
1634885839632,31.21
1634885839648,30.76
1634885839663,28.99
1634885839679,26.12
1634885839695,22.82
1634885839710,19.98
1634885839726,18.49
1634885839742,18.92
1634885839757,21.25
1634885839773,24.93
1634885839788,29.09
1634885839804,32.89
1634885839820,35.93
1634885839835,38.29
1634885839851,40.44
1634885839867,42.92
1634885839882,46.06
1634885839898,49.72
1634885839913,53.32
1634885839929,55.84
1634885839945,55.96
1634885839960,52.16
1634885839976,43.12
1634885839992,28.32
1634885840007,8.58
1634885840023,-13.79
1634885840038,-35.43
1634885840054,-53.03
1634885840070,-64.49
1634885840085,-69.64
1634885840101,-70.14
1634885840117,-68.49
1634885840132,-66.96
1634885840148,-66.77
1634885840163,-68.1
1634885840179,-70.58
1634885840195,-73.81
1634885840210,-77.51
1634885840226,-81.32
1634885840242,-84.51
1634885840257,-85.94
1634885840273,-84.49
1634885840288,-79.58
1634885840304,-71.5
1634885840320,-61.33
1634885840335,-50.47
1634885840351,-40.16
1634885840367,-31.11
1634885840382,-23.57
1634885840398,-17.47
1634885840413,-12.67
1634885840429,-8.99
1634885840445,-6.22
1634885840460,-4.18
1634885840476,-2.71
1634885840492,-1.82
1634885840507,-1.63
1634885840523,-2.26
1634885840538,-3.66
1634885840554,-5.51
1634885840570,-7.34
1634885840585,-8.7
1634885840601,-9.42
1634885840617,-9.67
1634885840632,-9.8
1634885840648,-10.15
1634885840663,-10.9
1634885840679,-12.14
1634885840695,-14.05
1634885840710,-16.87
1634885840726,-20.85
1634885840742,-25.89
1634885840757,-31.37
1634885840773,-36.2
1634885840788,-39.25
1634885840804,-39.8
1634885840820,-37.92
1634885840835,-34.34
1634885840851,-30.0
1634885840867,-25.55
1634885840882,-21.02
1634885840898,-16.07
1634885840913,-10.32
1634885840929,-3.81
1634885840945,2.93
1634885840960,9.1
1634885840976,14.09
1634885840992,17.84
1634885841007,20.93
1634885841023,24.31
1634885841038,28.89
1634885841054,35.19
1634885841070,43.26
1634885841085,52.88
1634885841101,63.74
1634885841117,75.62
1634885841132,88.32
1634885841148,101.61
1634885841163,115.18
1634885841179,128.66
1634885841195,141.78
1634885841210,154.34
1634885841226,166.13
1634885841242,176.71
1634885841257,185.2
1634885841273,190.35
1634885841288,190.89
1634885841304,185.97
1634885841320,175.54
1634885841335,160.36
1634885841351,141.66
1634885841367,120.72
1634885841382,98.57
1634885841398,75.93
1634885841413,53.32
1634885841429,31.36
1634885841445,10.89
1634885841460,-7.04
1634885841476,-21.35
1634885841492,-31.22
1634885841507,-36.43
1634885841523,-37.52
1634885841538,-35.72
1634885841554,-32.62
1634885841570,-29.6
1634885841585,-27.36
1634885841601,-25.7
1634885841617,-23.64
1634885841632,-19.91
1634885841648,-13.58
1634885841663,-4.42
1634885841679,7.02
1634885841695,19.78
1634885841710,32.9
1634885841726,45.9
1634885841742,58.82
1634885841757,72.11
1634885841773,86.36
1634885841788,102.21
1634885841804,120.34
1634885841820,141.35
1634885841835,165.22
1634885841851,190.69
1634885841867,214.75
1634885841882,232.8
1634885841898,239.88
1634885841913,232.42
1634885841929,209.84
1634885841945,175.07
1634885841960,133.63
1634885841976,91.57
1634885841992,53.38
1634885842007,20.79
1634885842023,-6.85
1634885842038,-31.3
1634885842054,-54.0
1634885842070,-75.47
1634885842085,-95.57
1634885842101,-114.15
1634885842117,-131.37
1634885842132,-147.33
1634885842148,-161.5
1634885842163,-172.64
1634885842179,-179.27
1634885842195,-180.54
1634885842210,-176.85
1634885842226,-169.52
1634885842242,-159.58
1634885842257,-146.69
1634885842273,-129.02
1634885842288,-104.43
1634885842304,-72.32
1634885842320,-34.71
1634885842335,3.84
1634885842351,37.62
1634885842367,61.7
1634885842382,72.94
1634885842398,69.97
1634885842413,52.37
1634885842429,20.33
1634885842445,-24.89
1634885842460,-79.79
1634885842476,-138.06
1634885842492,-191.28
1634885842507,-231.13
1634885842523,-252.07
1634885842538,-253.21
1634885842554,-238.29
1634885842570,-213.82
1634885842585,-186.55
1634885842601,-161.36
1634885842617,-140.82
1634885842632,-125.68
1634885842648,-115.85
1634885842663,-110.91
1634885842679,-109.95
1634885842695,-111.29
1634885842710,-112.63
1634885842726,-111.84
1634885842742,-107.85
1634885842757,-101.08
1634885842773,-92.92
1634885842788,-84.68
1634885842804,-77.0
1634885842820,-69.69
1634885842835,-62.35
1634885842851,-55.27
1634885842867,-49.61
1634885842882,-46.86
1634885842898,-47.87
1634885842913,-52.1
1634885842929,-57.65
1634885842945,-62.15
1634885842960,-63.7
1634885842976,-61.48
1634885842992,-55.49
1634885843007,-45.95
1634885843023,-32.74
1634885843038,-15.56
1634885843054,5.44
1634885843070,28.79
1634885843085,51.63
1634885843101,70.41
1634885843117,82.22
1634885843132,85.93
1634885843148,82.69
1634885843163,75.38
1634885843179,67.41
1634885843195,61.57
1634885843210,59.18
1634885843226,59.96
1634885843242,62.41
1634885843257,64.39
1634885843273,63.87
1634885843288,59.62
1634885843304,51.66
1634885843320,41.32
1634885843335,30.73
1634885843351,21.95
1634885843367,16.14
1634885843382,13.24
1634885843398,12.2
1634885843413,11.65
1634885843429,10.64
1634885843445,8.94
1634885843460,7.01
1634885843476,5.6
1634885843492,5.24
1634885843507,6.08
1634885843523,7.84
1634885843538,10.06
1634885843554,12.34
1634885843570,14.34
1634885843585,15.37
1634885843601,14.0
1634885843617,8.06
1634885843632,-4.66
1634885843648,-25.22
1634885843663,-52.42
1634885843679,-82.71
1634885843695,-111.54
1634885843710,-135.15
1634885843726,-152.02
1634885843742,-162.88
1634885843757,-169.32
1634885843773,-171.99
1634885843788,-169.66
1634885843804,-159.93
1634885843820,-141.01
1634885843835,-113.44
1634885843851,-80.46
1634885843867,-46.78
1634885843882,-16.57
1634885843898,8.06
1634885843913,27.32
1634885843929,42.53
1634885843945,54.78
1634885843960,63.94
1634885843976,69.02
1634885843992,69.22
1634885844007,65.02
1634885844023,58.5
1634885844038,52.5
1634885844054,49.47
1634885844070,50.4
1634885844085,54.44
1634885844101,59.26
1634885844117,62.08
1634885844132,60.62
1634885844148,53.77
1634885844163,41.85
1634885844179,26.35
1634885844195,9.37
1634885844210,-6.94
1634885844226,-20.73
1634885844242,-30.65
1634885844257,-35.78
1634885844273,-35.65
1634885844288,-30.34
1634885844304,-20.54
1634885844320,-7.53
1634885844335,7.13
1634885844351,21.91
1634885844367,35.63
1634885844382,47.55
1634885844398,57.14
1634885844413,63.91
1634885844429,67.24
1634885844445,66.72
1634885844460,62.54
1634885844476,55.57
1634885844492,47.15
1634885844507,38.48
1634885844523,30.12
1634885844538,22.01
1634885844554,13.82
1634885844570,5.43
1634885844585,-2.71
1634885844601,-9.62
1634885844617,-14.16
1634885844632,-15.41
1634885844648,-13.04
1634885844663,-7.34
1634885844679,0.8
1634885844695,10.22
1634885844710,19.7
1634885844726,28.34
1634885844742,35.58
1634885844757,41.21
1634885844773,45.14
1634885844788,47.23
1634885844804,47.28
1634885844820,45.2
1634885844835,41.32
1634885844851,36.53
1634885844867,32.2
1634885844882,29.64
1634885844898,29.61
1634885844913,31.93
1634885844929,35.55
1634885844945,38.99
1634885844960,40.98
1634885844976,41.01
1634885844992,39.37
1634885845007,36.87
1634885845023,34.23
1634885845038,31.76
1634885845054,29.35
1634885845070,26.81
1634885845085,24.19
1634885845101,21.92
1634885845117,20.62
1634885845132,20.88
1634885845148,23.14
1634885845163,27.84
1634885845179,35.45
1634885845195,46.39
1634885845210,60.55
1634885845226,76.85
1634885845242,93.12
1634885845257,106.58
1634885845273,114.78
1634885845288,116.44
1634885845304,111.83
1634885845320,102.4
1634885845335,90.06
1634885845351,76.39
1634885845367,62.2
1634885845382,47.6
1634885845398,32.36
1634885845413,16.41
1634885845429,0.08
1634885845445,-15.76
1634885845460,-30.01
1634885845476,-41.74
1634885845492,-50.74
1634885845507,-57.57
1634885845523,-63.38
1634885845538,-69.24
1634885845554,-75.49
1634885845570,-81.61
1634885845585,-86.6
1634885845601,-89.7
1634885845617,-90.95
1634885845632,-91.19
1634885845648,-91.61
1634885845663,-93.04
1634885845679,-95.57
1634885845695,-98.53
1634885845710,-100.82
1634885845726,-101.29
1634885845742,-98.96
1634885845757,-93.15
1634885845773,-83.49
1634885845788,-70.12
1634885845804,-53.86
1634885845820,-36.32
1634885845835,-19.61
1634885845851,-5.85
1634885845867,3.4
1634885845882,7.58
1634885845898,7.18
1634885845913,3.56
1634885845929,-1.55
1634885845945,-6.39
1634885845960,-9.56
1634885845976,-10.16
1634885845992,-7.93
1634885846007,-3.16
1634885846023,3.44
1634885846038,10.91
1634885846054,18.34
1634885846070,25.05
1634885846085,30.6
1634885846101,34.78
1634885846117,37.44
1634885846132,38.64
1634885846148,38.7
1634885846163,38.29
1634885846179,38.26
1634885846195,39.33
1634885846210,41.71
1634885846226,45.01
1634885846242,48.52
1634885846257,51.59
1634885846273,53.95
1634885846288,55.77
1634885846304,57.34
1634885846320,58.78
1634885846335,59.81
1634885846351,59.95
1634885846367,58.82
1634885846382,56.49
1634885846398,53.46
1634885846413,50.52
1634885846429,48.46
1634885846445,47.78
1634885846460,48.56
1634885846476,50.54
1634885846492,53.22
1634885846507,56.16
1634885846523,59.2
1634885846538,62.58
1634885846554,66.68
1634885846570,71.8
1634885846585,77.82
1634885846601,84.14
1634885846617,90.01
1634885846632,94.86
1634885846648,98.65
1634885846663,101.84
1634885846679,105.09
1634885846695,108.96
1634885846710,113.63
1634885846726,118.96
1634885846742,124.62
1634885846757,130.33
1634885846773,135.84
1634885846788,140.93
1634885846804,145.36
1634885846820,149.03
1634885846835,151.98
1634885846851,154.41
1634885846867,156.6
1634885846882,158.63
1634885846898,160.27
1634885846913,161.07
1634885846929,160.74
1634885846945,159.45
1634885846960,157.97
1634885846976,157.34
1634885846992,158.06
1634885847007,159.4
1634885847023,159.09
1634885847038,153.82
1634885847054,140.39
1634885847070,117.09
1634885847085,84.42
1634885847101,44.83
1634885847117,1.73
1634885847132,-41.95
1634885847148,-84.69
1634885847163,-126.57
1634885847179,-168.74
1634885847195,-212.77
1634885847210,-260.19
1634885847226,-312.02
1634885847242,-368.08
1634885847257,-425.93
1634885847273,-480.42
1634885847288,-524.0
1634885847304,-548.68
1634885847320,-548.73
1634885847335,-522.87
1634885847351,-474.71
1634885847367,-411.12
1634885847382,-339.33
1634885847398,-264.65
1634885847413,-189.95
1634885847429,-116.84
1634885847445,-47.74
1634885847460,13.13
1634885847476,60.57
1634885847492,90.64
1634885847507,102.87
1634885847523,100.68
1634885847538,90.0
1634885847554,76.56
1634885847570,63.78
1634885847585,52.29
1634885847601,40.9
1634885847617,28.53
1634885847632,15.36
1634885847648,2.71
1634885847663,-7.85
1634885847679,-15.53
1634885847695,-20.57
1634885847710,-23.75
1634885847726,-25.66
1634885847742,-26.3
1634885847757,-25.03
1634885847773,-21.07
1634885847788,-13.77
1634885847804,-2.61
1634885847820,12.71
1634885847835,32.12
1634885847851,54.91
1634885847867,79.68
1634885847882,104.67
1634885847898,128.39
1634885847913,150.01
1634885847929,169.26
1634885847945,185.9
1634885847960,199.21
1634885847976,208.1
1634885847992,211.77
1634885848007,210.48
1634885848023,205.62
1634885848038,199.2
1634885848054,192.88
1634885848070,187.39
1634885848085,182.58
1634885848101,177.92
1634885848117,172.93
1634885848132,167.16
1634885848148,159.98
1634885848163,150.34
1634885848179,137.23
1634885848195,120.45
1634885848210,101.16
1634885848226,81.59
1634885848242,63.87
1634885848257,48.89
1634885848273,35.84
1634885848288,22.95
1634885848304,8.63
1634885848320,-7.65
1634885848335,-25.77
1634885848351,-45.97
1634885848367,-69.44
1634885848382,-98.02
1634885848398,-132.56
1634885848413,-171.55
1634885848429,-210.69
1634885848445,-244.07
1634885848460,-266.28
1634885848476,-274.32
1634885848492,-268.38
1634885848507,-251.17
1634885848523,-226.45
1634885848538,-197.54
1634885848554,-166.53
1634885848570,-134.17
1634885848585,-100.36
1634885848601,-64.84
1634885848617,-27.7
1634885848632,10.25
1634885848648,47.69
1634885848663,83.16
1634885848679,115.54
1634885848695,144.27
1634885848710,169.34
1634885848726,191.06
1634885848742,209.91
1634885848757,226.54
1634885848773,241.87
1634885848788,257.03
1634885848804,272.98
1634885848820,290.13
1634885848835,308.09
1634885848851,325.92
1634885848867,342.69
1634885848882,357.71
1634885848898,370.4
1634885848913,379.79
1634885848929,384.16
1634885848945,381.27
1634885848960,369.27
1634885848976,347.63
1634885848992,317.56
1634885849007,281.68
1634885849023,242.92
1634885849038,203.58
1634885849054,164.79
1634885849070,126.91
1634885849085,90.08
1634885849101,54.81
1634885849117,21.92
1634885849132,-8.04
1634885849148,-35.36
1634885849163,-61.3
1634885849179,-87.57
1634885849195,-115.48
1634885849210,-145.19
1634885849226,-175.59
1634885849242,-204.79
1634885849257,-231.05
1634885849273,-253.68
1634885849288,-273.29
1634885849304,-291.45
1634885849320,-309.85
1634885849335,-329.42
1634885849351,-349.86
1634885849367,-370.01
1634885849382,-388.35
1634885849398,-403.98
1634885849413,-417.14
1634885849429,-429.24
1634885849445,-442.49
1634885849460,-459.56
1634885849476,-483.15
1634885849492,-515.48
1634885849507,-557.18
1634885849523,-606.05
1634885849538,-656.41
1634885849554,-699.7
1634885849570,-726.81
1634885849585,-731.13
1634885849601,-711.03
1634885849617,-670.38
1634885849632,-616.76
1634885849648,-558.31
1634885849663,-501.03
1634885849679,-447.64
1634885849695,-398.39
1634885849710,-352.69
1634885849726,-310.45
1634885849742,-272.17
1634885849757,-238.18
1634885849773,-207.78
1634885849788,-179.22
1634885849804,-150.52
1634885849820,-120.64
1634885849835,-90.18
1634885849851,-61.02
1634885849867,-35.57
1634885849882,-15.33
1634885849898,-0.12
1634885849913,11.9
1634885849929,23.46
1634885849945,36.94
1634885849960,53.39
1634885849976,72.18
1634885849992,91.43
1634885850007,109.08
1634885850023,123.99
1634885850038,136.66
1634885850054,149.31
1634885850070,165.2
1634885850085,187.45
1634885850101,217.56
1634885850117,254.27
1634885850132,293.3
1634885850148,328.29
1634885850163,352.78
1634885850179,362.18
1634885850195,355.19
1634885850210,334.07
1634885850226,303.88
1634885850242,271.18
1634885850257,242.57
1634885850273,223.31
1634885850288,216.16
1634885850304,220.62
1634885850320,233.19
1634885850335,248.64
1634885850351,262.26
1634885850367,271.72
1634885850382,277.71
1634885850398,282.66
1634885850413,288.44
1634885850429,294.54
1634885850445,297.78
1634885850460,294.13
1634885850476,281.05
1634885850492,259.0
1634885850507,231.1
1634885850523,201.21
1634885850538,171.96
1634885850554,143.82
1634885850570,115.9
1634885850585,87.46
1634885850601,59.36
1634885850617,34.11
1634885850632,14.8
1634885850648,3.31
1634885850663,-0.77
1634885850679,-0.03
1634885850695,2.07
1634885850710,2.83
1634885850726,1.13
1634885850742,-2.88
1634885850757,-9.07
1634885850773,-18.16
1634885850788,-31.48
1634885850804,-49.87
1634885850820,-72.54
1634885850835,-97.16
1634885850851,-121.0
1634885850867,-142.33
1634885850882,-161.06
1634885850898,-177.98
1634885850913,-193.36
1634885850929,-205.91
1634885850945,-213.06
1634885850960,-212.41
1634885850976,-203.13
1634885850992,-186.41
1634885851007,-164.61
1634885851023,-140.0
1634885851038,-114.16
1634885851054,-88.33
1634885851070,-64.13
1634885851085,-43.73
1634885851101,-29.11
1634885851117,-20.97
1634885851132,-18.26
1634885851148,-18.85
1634885851163,-20.82
1634885851179,-23.49
1634885851195,-27.61
1634885851210,-34.61
1634885851226,-45.65
1634885851242,-60.93
1634885851257,-79.5
1634885851273,-99.25
1634885851288,-117.1
1634885851304,-129.56
1634885851320,-133.73
1634885851335,-128.42
1634885851351,-114.81
1634885851367,-96.04
1634885851382,-75.64
1634885851398,-55.64
1634885851413,-35.69
1634885851429,-13.88
1634885851445,11.29
1634885851460,39.02
1634885851476,66.15
1634885851492,88.79
1634885851507,104.79
1634885851523,115.02
1634885851538,122.77
1634885851554,131.58
1634885851570,143.03
1634885851585,156.19
1634885851601,168.53
1634885851617,177.8
1634885851632,183.49
1634885851648,186.94
1634885851663,190.4
1634885851679,195.73
1634885851695,203.49
1634885851710,212.9
1634885851726,222.56
1634885851742,231.24
1634885851757,238.23
1634885851773,243.24
1634885851788,246.04
1634885851804,246.11
1634885851820,242.6
1634885851835,234.57
1634885851851,221.45
1634885851867,203.46
1634885851882,181.61
1634885851898,157.48
1634885851913,132.66
1634885851929,108.42
1634885851945,85.57
1634885851960,64.58
1634885851976,45.81
1634885851992,29.62
1634885852007,16.18
1634885852023,5.32
1634885852038,-3.6
1634885852054,-11.48
1634885852070,-18.98
1634885852085,-26.13
1634885852101,-32.0
1634885852117,-34.96
1634885852132,-33.28
1634885852148,-25.86
1634885852163,-12.8
1634885852179,4.48
1634885852195,23.7
1634885852210,42.36
1634885852226,58.44
1634885852242,70.56
1634885852257,77.97
1634885852273,80.21
1634885852288,77.07
1634885852304,68.63
1634885852320,55.62
1634885852335,39.54
1634885852351,22.57
1634885852367,6.99
1634885852382,-5.53
1634885852398,-14.42
1634885852413,-20.33
1634885852429,-24.62
1634885852445,-28.65
1634885852460,-32.98
1634885852476,-37.13
1634885852492,-39.72
1634885852507,-39.16
1634885852523,-34.29
1634885852538,-24.9
1634885852554,-11.76
1634885852570,3.72
1634885852585,19.91
1634885852601,35.52
1634885852617,49.79
1634885852632,62.65
1634885852648,74.59
1634885852663,86.48
1634885852679,99.28
1634885852695,113.83
1634885852710,130.65
1634885852726,149.69
1634885852742,170.06
1634885852757,189.86
1634885852773,206.32
1634885852788,216.23
1634885852804,216.79
1634885852820,206.43
1634885852835,185.3
1634885852851,155.21
1634885852867,119.01
1634885852882,79.64
1634885852898,39.55
1634885852913,0.43
1634885852929,-36.81
1634885852945,-71.59
1634885852960,-103.75
1634885852976,-133.58
1634885852992,-161.97
1634885853007,-190.37
1634885853023,-220.86
1634885853038,-255.87
1634885853054,-297.6
1634885853070,-346.87
1634885853085,-401.64
1634885853101,-456.27
1634885853117,-502.1
1634885853132,-529.84
1634885853148,-532.77
1634885853163,-509.26
1634885853179,-463.21
1634885853195,-401.99
1634885853210,-333.35
1634885853226,-262.83
1634885853242,-193.4
1634885853257,-126.78
1634885853273,-65.28
1634885853288,-12.49
1634885853304,27.81
1634885853320,53.6
1634885853335,66.18
1634885853351,69.99
1634885853367,70.86
1634885853382,73.53
1634885853398,79.91
1634885853413,88.99
1634885853429,97.97
1634885853445,104.42
1634885853460,107.68
1634885853476,109.11
1634885853492,111.13
1634885853507,115.75
1634885853523,123.45
1634885853538,133.13
1634885853554,142.85
1634885853570,150.98
1634885853585,157.1
1634885853601,162.03
1634885853617,167.19
1634885853632,173.78
1634885853648,182.21
1634885853663,191.92
1634885853679,201.78
1634885853695,210.69
1634885853710,218.05
1634885853726,224.17
1634885853742,230.01
1634885853757,236.66
1634885853773,244.59
1634885853788,253.35
1634885853804,261.71
1634885853820,268.3
1634885853835,272.13
1634885853851,272.7
1634885853867,269.53
1634885853882,261.57
1634885853898,247.1
1634885853913,224.25
1634885853929,191.96
1634885853945,150.66
1634885853960,102.29
1634885853976,49.48
1634885853992,-5.32
1634885854007,-60.37
1634885854023,-114.69
1634885854038,-167.5
1634885854054,-218.08
1634885854070,-265.9
1634885854085,-310.92
1634885854101,-354.04
1634885854117,-397.22
1634885854132,-443.34
1634885854148,-495.21
1634885854163,-554.12
1634885854179,-618.09
1634885854195,-681.0
1634885854210,-733.47
1634885854226,-765.53
1634885854242,-770.26
1634885854257,-746.61
1634885854273,-699.92
1634885854288,-639.73
1634885854304,-576.01
1634885854320,-515.7
1634885854335,-461.28
1634885854351,-411.65
1634885854367,-364.37
1634885854382,-317.8
1634885854398,-271.96
1634885854413,-227.94
1634885854429,-186.66
1634885854445,-148.07
1634885854460,-111.09
1634885854476,-74.27
1634885854492,-36.52
1634885854507,2.6
1634885854523,42.92
1634885854538,84.4
1634885854554,127.44
1634885854570,172.52
1634885854585,219.16
1634885854601,264.95
1634885854617,305.31
1634885854632,334.56
1634885854648,348.05
1634885854663,344.39
1634885854679,326.46
1634885854695,300.68
1634885854710,274.79
1634885854726,255.17
1634885854742,244.95
1634885854757,243.66
1634885854773,248.26
1634885854788,254.96
1634885854804,260.72
1634885854820,263.94
1634885854835,264.23
1634885854851,261.81
1634885854867,256.88
1634885854882,249.47
1634885854898,239.66
1634885854913,227.85
1634885854929,215.1
1634885854945,202.86
1634885854960,192.45
1634885854976,184.43
1634885854992,178.38
1634885855007,173.06
1634885855023,167.0
1634885855039,159.2
1634885855054,149.39
1634885855070,137.95
1634885855085,125.5
1634885855101,112.63
1634885855117,99.9
1634885855132,87.9
1634885855148,77.23
1634885855164,68.31
1634885855179,61.04
1634885855195,54.64
1634885855210,47.82
1634885855226,39.42
1634885855242,29.05
1634885855257,17.53
1634885855273,6.58
1634885855289,-2.03
1634885855304,-7.44
1634885855320,-10.53
1634885855335,-13.9
1634885855351,-21.16
1634885855367,-35.85
1634885855382,-60.43
1634885855398,-95.52
1634885855414,-139.56
1634885855429,-188.94
1634885855445,-238.53
1634885855460,-282.48
1634885855476,-315.54
1634885855492,-334.51
1634885855507,-339.24
1634885855523,-332.52
1634885855539,-318.82
1634885855554,-302.36
1634885855570,-285.48
1634885855585,-268.22
1634885855601,-249.12
1634885855617,-226.53
1634885855632,-199.64
1634885855648,-168.7
1634885855664,-134.61
1634885855679,-98.32
1634885855695,-60.76
1634885855710,-23.05
1634885855726,13.21
1634885855742,45.84
1634885855757,72.73
1634885855773,92.56
1634885855789,105.38
1634885855804,112.57
1634885855820,116.21
1634885855835,118.52
1634885855851,121.36
1634885855867,125.99
1634885855882,132.97
1634885855898,141.92
1634885855914,151.63
1634885855929,160.33
1634885855945,166.23
1634885855960,168.22
1634885855976,166.22
1634885855992,161.06
1634885856007,153.94
1634885856023,145.9
1634885856039,137.43
1634885856054,128.62
1634885856070,119.58
1634885856085,110.83
1634885856101,103.24
1634885856117,97.59
1634885856132,93.94
1634885856148,91.36
1634885856164,88.26
1634885856179,83.2
1634885856195,75.54
1634885856210,65.78
1634885856226,55.3
1634885856242,45.6
1634885856257,37.68
1634885856273,31.75
1634885856289,27.33
1634885856304,23.66
1634885856320,20.05
1634885856335,16.03
1634885856351,11.42
1634885856367,6.23
1634885856382,0.59
1634885856398,-5.23
1634885856414,-10.81
1634885856429,-15.58
1634885856445,-19.01
1634885856460,-20.76
1634885856476,-20.8
1634885856492,-19.47
1634885856507,-17.28
1634885856523,-14.79
1634885856539,-12.4
1634885856554,-10.35
1634885856570,-8.77
1634885856585,-7.75
1634885856601,-7.33
1634885856617,-7.44
1634885856632,-7.87
1634885856648,-8.29
1634885856664,-8.37
1634885856679,-7.93
1634885856695,-7.0
1634885856710,-5.84
1634885856726,-4.76
1634885856742,-4.01
1634885856757,-3.68
1634885856773,-3.68
1634885856789,-3.85
1634885856804,-4.03
1634885856820,-4.17
1634885856835,-4.3
1634885856851,-4.53
1634885856867,-4.99
1634885856882,-5.77
1634885856898,-6.85
1634885856914,-8.13
1634885856929,-9.36
1634885856945,-10.25
1634885856960,-10.5
1634885856976,-9.86
1634885856992,-8.23
1634885857007,-5.66
1634885857023,-2.37
1634885857039,1.38
1634885857054,5.25
1634885857070,8.98
1634885857085,12.4
1634885857101,15.48
1634885857117,18.28
1634885857132,20.92
1634885857148,23.46
1634885857164,25.82
1634885857179,27.78
1634885857195,29.1
1634885857210,29.62
1634885857226,29.41
1634885857242,28.75
1634885857257,28.0
1634885857273,27.46
1634885857289,27.26
1634885857304,27.36
1634885857320,27.66
1634885857335,28.09
1634885857351,28.63
1634885857367,29.19
1634885857382,29.56
1634885857398,29.39
1634885857414,28.31
1634885857429,26.13
1634885857445,23.03
1634885857460,19.46
1634885857476,16.0
1634885857492,13.09
1634885857507,10.86
1634885857523,9.18
1634885857539,7.79
1634885857554,6.46
1634885857570,5.18
1634885857585,4.12
1634885857601,3.58
1634885857617,3.76
1634885857632,4.56
1634885857648,5.49
1634885857664,5.88
1634885857679,5.18
1634885857695,3.16
1634885857710,0.0
1634885857726,-3.87
1634885857742,-8.04
1634885857757,-12.27
1634885857773,-16.49
1634885857789,-20.68
1634885857804,-24.78
1634885857820,-28.76
1634885857835,-32.79
1634885857851,-37.47
1634885857867,-43.58
1634885857882,-51.75
1634885857898,-61.85
1634885857914,-72.82
1634885857929,-82.87
1634885857945,-90.2
1634885857960,-93.79
1634885857976,-94.15
1634885857992,-93.2
1634885858007,-93.55
1634885858023,-97.16
1634885858039,-104.39
1634885858054,-113.65
1634885858070,-122.04
1634885858085,-126.19
1634885858101,-123.17
1634885858117,-110.96
1634885858132,-88.74
1634885858148,-57.15
1634885858164,-18.68
1634885858179,22.27
1634885858195,60.08
1634885858210,89.35
1634885858226,106.62
1634885858242,111.61
1634885858257,107.02
1634885858273,97.12
1634885858289,85.92
1634885858304,75.86
1634885858320,67.71
1634885858335,61.42
1634885858351,57.08
1634885858367,55.18
1634885858382,56.16
1634885858398,59.88
1634885858414,65.26
1634885858429,70.8
1634885858445,75.23
1634885858460,78.16
1634885858476,80.0
1634885858492,81.51
1634885858507,83.02
1634885858523,84.06
1634885858539,83.61
1634885858554,80.62
1634885858570,74.69
1634885858585,66.39
1634885858601,56.97
1634885858617,47.83
1634885858632,39.76
1634885858648,32.86
1634885858664,26.74
1634885858679,21.17
1634885858695,16.2
1634885858710,11.98
1634885858726,8.17
1634885858742,3.69
1634885858757,-2.88
1634885858773,-12.42
1634885858789,-24.43
1634885858804,-36.94
1634885858820,-47.23
1634885858835,-53.12
1634885858851,-53.9
1634885858867,-50.46
1634885858882,-44.57
1634885858898,-37.91
1634885858914,-31.43
1634885858929,-25.44
1634885858945,-20.14
1634885858960,-16.06
1634885858976,-13.92
1634885858992,-14.11
1634885859007,-16.25
1634885859023,-19.1
1634885859039,-21.1
1634885859054,-21.16
1634885859070,-19.24
1634885859085,-16.27
1634885859101,-13.56
1634885859117,-12.18
1634885859132,-12.23
1634885859148,-12.88
1634885859164,-12.84
1634885859179,-10.9
1634885859195,-6.54
1634885859210,-0.1
1634885859226,7.14
1634885859242,13.12
1634885859257,15.31
1634885859273,11.42
1634885859289,0.11
1634885859304,-18.15
1634885859320,-40.76
1634885859335,-63.51
1634885859351,-81.82
1634885859367,-92.34
1634885859382,-94.04
1634885859398,-88.33
1634885859414,-78.3
1634885859429,-67.38
1634885859445,-58.25
1634885859460,-52.26
1634885859476,-49.48
1634885859492,-49.2
1634885859507,-50.46
1634885859523,-52.33
1634885859539,-54.1
1634885859554,-55.31
1634885859570,-55.75
1634885859585,-55.46
1634885859601,-54.63
1634885859617,-53.71
1634885859632,-53.14
1634885859648,-53.23
1634885859664,-53.8
1634885859679,-54.14
1634885859695,-53.09
1634885859710,-49.49
1634885859726,-42.7
1634885859742,-33.02
1634885859757,-21.68
1634885859773,-10.42
1634885859789,-0.91
1634885859804,5.79
1634885859820,9.51
1634885859835,10.88
1634885859851,11.03
1634885859867,11.18
1634885859882,12.35
1634885859898,15.09
1634885859914,19.58
1634885859929,25.68
1634885859945,33.02
1634885859960,41.01
1634885859976,48.89
1634885859992,55.76
1634885860007,60.67
1634885860023,62.86
1634885860039,62.01
1634885860054,58.37
1634885860070,52.74
1634885860085,46.14
1634885860101,39.53
1634885860117,33.56
1634885860132,28.45
1634885860148,24.12
1634885860164,20.33
1634885860179,16.86
1634885860195,13.62
1634885860210,10.7
1634885860226,8.23
1634885860242,6.36
1634885860257,5.12
1634885860273,4.42
1634885860289,4.08
1634885860304,4.01
1634885860320,4.17
1634885860335,4.6
1634885860351,5.27
1634885860367,6.0
1634885860382,6.42
1634885860398,6.19
1634885860414,5.11
1634885860429,3.22
1634885860445,0.8
1634885860460,-1.82
1634885860476,-4.33
1634885860492,-6.5
1634885860507,-8.16
1634885860523,-9.2
1634885860539,-9.61
1634885860554,-9.56
1634885860570,-9.36
1634885860585,-9.35
1634885860601,-9.8
1634885860617,-10.7
1634885860632,-11.83
1634885860648,-12.86
1634885860664,-13.59
1634885860679,-14.04
1634885860695,-14.41
1634885860710,-14.9
1634885860726,-15.54
1634885860742,-16.12
1634885860757,-16.29
1634885860773,-15.76
1634885860789,-14.39
1634885860804,-12.3
1634885860820,-9.76
1634885860835,-7.09
1634885860851,-4.5
1634885860867,-2.03
1634885860882,0.38
1634885860898,2.77
1634885860914,5.08
1634885860929,7.07
1634885860945,8.48
1634885860960,9.13
1634885860976,9.06
1634885860992,8.6
1634885861007,8.18
1634885861023,8.21
1634885861039,8.79
1634885861054,9.7
1634885861070,10.54
1634885861085,10.87
1634885861101,10.53
1634885861117,9.63
1634885861132,8.57
1634885861148,7.76
1634885861164,7.49
1634885861179,7.82
1634885861195,8.58
1634885861210,9.46
1634885861226,10.1
1634885861242,10.14
1634885861257,9.26
1634885861273,7.41
1634885861289,5.02
1634885861304,3.26
1634885861320,3.83
1634885861335,8.45
1634885861351,18.07
1634885861367,32.1
1634885861382,48.37
1634885861398,63.73
1634885861414,75.1
1634885861429,80.54
1634885861445,79.73
1634885861460,73.72
1634885861476,64.24
1634885861492,53.03
1634885861507,41.51
1634885861523,30.83
1634885861539,22.11
1634885861554,16.38
1634885861570,14.29
1634885861585,15.7
1634885861601,19.54
1634885861617,24.19
1634885861632,28.21
1634885861648,30.92
1634885861664,32.55
1634885861679,33.88
1634885861695,35.51
1634885861710,37.37
1634885861726,38.73
1634885861742,38.71
1634885861757,36.98
1634885861773,34.08
1634885861789,31.24
1634885861804,29.73
1634885861820,30.22
1634885861835,32.44
1634885861851,35.42
1634885861867,38.05
1634885861882,39.63
1634885861898,40.09
1634885861914,39.95
1634885861929,40.01
1634885861945,41.08
1634885861960,43.83
1634885861976,48.67
1634885861992,55.71
1634885862007,64.62
1634885862023,74.51
1634885862039,83.94
1634885862054,91.31
1634885862070,95.27
1634885862085,95.43
1634885862101,92.76
1634885862117,89.4
1634885862132,87.87
1634885862148,89.95
1634885862164,95.71
1634885862179,103.08
1634885862195,108.48
1634885862210,107.93
1634885862226,98.37
1634885862242,78.53
1634885862257,49.07
1634885862273,12.2
1634885862289,-29.1
1634885862304,-71.66
1634885862320,-112.55
1634885862335,-149.22
1634885862351,-179.56
1634885862367,-202.16
1634885862382,-216.44
1634885862398,-222.77
1634885862414,-222.41
1634885862429,-216.99
1634885862445,-207.99
1634885862460,-196.61
1634885862476,-184.01
1634885862492,-171.75
1634885862507,-161.9
1634885862523,-156.49
1634885862539,-156.46
1634885862554,-160.7
1634885862570,-165.98
1634885862585,-168.05
1634885862601,-163.34
1634885862617,-150.7
1634885862632,-131.89
1634885862648,-110.81
1634885862664,-91.98
1634885862679,-78.89
1634885862695,-73.04
1634885862710,-73.99
1634885862726,-79.92
1634885862742,-88.32
1634885862757,-96.62
1634885862773,-102.66
1634885862789,-104.97
1634885862804,-103.06
1634885862820,-97.3
1634885862835,-88.81
1634885862851,-79.06
1634885862867,-69.76
1634885862882,-62.68
1634885862898,-59.38
1634885862914,-60.56
1634885862929,-65.26
1634885862945,-70.49
1634885862960,-71.72
1634885862976,-64.55
1634885862992,-46.67
1634885863007,-19.19
1634885863023,13.62
1634885863039,46.02
1634885863054,73.04
1634885863070,92.17
1634885863085,103.66
1634885863101,109.45
1634885863117,111.71
1634885863132,111.76
1634885863148,110.02
1634885863164,106.47
1634885863179,101.38
1634885863195,95.55
1634885863210,89.98
1634885863226,85.52
1634885863242,82.59
1634885863257,81.11
1634885863273,80.78
1634885863289,81.32
1634885863304,82.68
1634885863320,85.19
1634885863335,89.36
1634885863351,95.62
1634885863367,103.88
1634885863382,113.3
1634885863398,122.53
1634885863414,130.19
1634885863429,135.5
1634885863445,138.75
1634885863460,141.22
1634885863476,144.81
1634885863492,151.23
1634885863507,161.49
1634885863523,175.26
1634885863539,190.86
1634885863554,205.38
1634885863570,215.26
1634885863585,217.24
1634885863601,209.37
1634885863617,191.6
1634885863632,165.81
1634885863648,135.11
1634885863664,102.85
1634885863679,71.75
1634885863695,43.56
1634885863710,19.19
1634885863726,-1.0
1634885863742,-16.84
1634885863757,-28.45
1634885863773,-36.29
1634885863789,-41.12
1634885863804,-43.92
1634885863820,-45.73
1634885863835,-47.61
1634885863851,-50.65
1634885863867,-55.89
1634885863882,-64.11
1634885863898,-75.3
1634885863914,-88.49
1634885863929,-101.87
1634885863945,-113.44
1634885863960,-121.78
1634885863976,-126.57
1634885863992,-128.6
1634885864007,-129.09
1634885864023,-128.86
1634885864039,-127.7
1634885864054,-124.39
1634885864070,-117.51
1634885864085,-106.45
1634885864101,-92.07
1634885864117,-76.63
1634885864132,-62.94
1634885864148,-53.18
1634885864164,-48.07
1634885864179,-46.66
1634885864195,-46.98
1634885864210,-47.04
1634885864226,-45.92
1634885864242,-43.96
1634885864257,-42.39
1634885864273,-42.37
1634885864289,-44.24
1634885864304,-47.17
1634885864320,-49.6
1634885864335,-50.08
1634885864351,-47.99
1634885864367,-43.87
1634885864382,-39.01
1634885864398,-34.78
1634885864414,-31.99
1634885864429,-30.63
1634885864445,-30.12
1634885864460,-29.84
1634885864476,-29.57
1634885864492,-29.47
1634885864507,-29.86
1634885864523,-30.8
1634885864539,-31.96
1634885864554,-32.66
1634885864570,-32.2
1634885864585,-30.15
1634885864601,-26.52
1634885864617,-21.78
1634885864632,-16.67
1634885864648,-11.99
1634885864664,-8.28
1634885864679,-5.8
1634885864695,-4.42
1634885864710,-3.88
1634885864726,-3.93
1634885864742,-4.51
1634885864757,-5.75
1634885864773,-7.76
1634885864789,-10.43
1634885864804,-13.35
1634885864820,-15.86
1634885864835,-17.33
1634885864851,-17.42
1634885864867,-16.24
1634885864882,-14.26
1634885864898,-12.16
1634885864914,-10.55
1634885864929,-9.85
1634885864945,-10.2
1634885864960,-11.53
1634885864976,-13.62
1634885864992,-16.12
1634885865007,-18.72
1634885865023,-21.15
1634885865039,-23.21
1634885865054,-24.77
1634885865070,-25.65
1634885865085,-25.67
1634885865101,-24.68
1634885865117,-22.66
1634885865132,-19.9
1634885865148,-16.9
1634885865164,-14.21
1634885865179,-12.14
1634885865195,-10.64
1634885865210,-9.29
1634885865226,-7.52
1634885865242,-4.94
1634885865257,-1.47
1634885865273,2.54
1634885865289,6.5
1634885865304,9.73
1634885865320,11.71
1634885865335,12.25
1634885865351,11.58
1634885865367,10.26
1634885865382,9.11
1634885865398,8.93
1634885865414,10.34
1634885865429,13.59
1634885865445,18.62
1634885865460,25.07
1634885865476,32.39
1634885865492,39.94
1634885865507,47.01
1634885865523,52.97
1634885865539,57.43
1634885865554,60.31
1634885865570,61.93
1634885865585,62.86
1634885865601,63.64
1634885865617,64.55
1634885865632,65.59
1634885865648,66.53
1634885865664,67.25
1634885865679,67.96
1634885865695,69.2
1634885865710,71.68
1634885865726,75.95
1634885865742,82.18
1634885865757,90.11
1634885865773,99.25
1634885865789,109.31
1634885865804,120.33
1634885865820,132.7
1634885865835,146.75
1634885865851,162.39
1634885865867,178.9
1634885865882,195.34
1634885865898,211.07
1634885865914,226.29
1634885865929,241.74
1634885865945,257.82
1634885865960,273.6
1634885865976,286.35
1634885865992,292.14
1634885866007,287.28
1634885866023,269.92
1634885866039,240.93
1634885866054,203.63
1634885866070,162.48
1634885866085,121.38
1634885866101,82.68
1634885866117,46.96
1634885866132,13.56
1634885866148,-18.59
1634885866164,-50.56
1634885866179,-83.61
1634885866195,-119.45
1634885866210,-160.14
1634885866226,-207.0
1634885866242,-258.93
1634885866257,-311.35
1634885866273,-356.75
1634885866289,-386.98
1634885866304,-396.73
1634885866320,-385.94
1634885866335,-359.95
1634885866351,-327.16
1634885866367,-295.73
1634885866382,-271.07
1634885866398,-255.34
1634885866414,-248.36
1634885866429,-248.67
1634885866445,-253.84
1634885866460,-260.3
1634885866476,-263.39
1634885866492,-258.51
1634885866507,-242.68
1634885866523,-215.66
1634885866539,-179.65
1634885866554,-137.76
1634885866570,-92.63
1634885866585,-46.31
1634885866601,-0.83
1634885866617,41.11
1634885866632,76.57
1634885866648,103.69
1634885866664,123.03
1634885866679,137.51
1634885866695,150.82
1634885866710,165.46
1634885866726,181.49
1634885866742,197.1
1634885866757,210.22
1634885866773,219.84
1634885866789,226.22
1634885866804,229.96
1634885866820,230.93
1634885866835,228.01
1634885866851,219.75
1634885866867,205.53
1634885866882,186.2
1634885866898,163.78
1634885866914,140.27
1634885866929,116.57
1634885866945,91.98
1634885866960,64.62
1634885866976,32.49
1634885866992,-5.32
1634885867007,-48.11
1634885867023,-93.79
1634885867039,-139.75
1634885867054,-183.66
1634885867070,-223.41
1634885867085,-256.7
1634885867101,-280.83
1634885867117,-293.35
1634885867132,-293.51
1634885867148,-283.38
1634885867164,-267.42
1634885867179,-250.31
1634885867195,-234.52
1634885867210,-219.07
1634885867226,-200.74
1634885867242,-176.79
1634885867257,-147.26
1634885867273,-115.24
1634885867289,-84.61
1634885867304,-57.15
1634885867320,-30.87
1634885867335,-1.05
1634885867351,36.97
1634885867367,85.14
1634885867382,141.82
1634885867398,203.26
1634885867414,265.89
1634885867429,327.47
1634885867445,386.64
1634885867460,441.29
1634885867476,487.49
1634885867492,520.09
1634885867507,534.5
1634885867523,528.82
1634885867539,504.6
1634885867554,466.1
1634885867570,418.89
1634885867585,368.49
1634885867601,319.91
1634885867617,277.55
1634885867632,244.93
1634885867648,223.78
1634885867664,213.05
1634885867679,208.52
1634885867695,203.94
1634885867710,193.25
1634885867726,172.97
1634885867742,143.32
1634885867757,107.62
1634885867773,70.22
1634885867789,34.36
1634885867804,1.13
1634885867820,-30.13
1634885867835,-60.66
1634885867851,-91.15
1634885867867,-121.46
1634885867882,-150.98
1634885867898,-179.49
1634885867914,-207.34
1634885867929,-235.53
1634885867945,-265.11
1634885867960,-296.61
1634885867976,-329.89
1634885867992,-364.45
1634885868007,-400.06
1634885868023,-437.18
1634885868039,-476.97
1634885868054,-520.45
1634885868070,-567.16
1634885868085,-614.01
1634885868101,-655.21
1634885868117,-683.44
1634885868132,-692.04
1634885868148,-677.5
1634885868164,-640.7
1634885868179,-586.37
1634885868195,-521.38
1634885868210,-452.87
1634885868226,-387.29
1634885868242,-330.15
1634885868257,-285.94
1634885868273,-257.44
1634885868289,-244.47
1634885868304,-242.98
1634885868320,-245.67
1634885868335,-244.19
1634885868351,-232.37
1634885868367,-208.44
1634885868382,-175.28
1634885868398,-138.54
1634885868414,-103.47
1634885868429,-72.9
1634885868445,-46.73
1634885868460,-23.02
1634885868476,0.26
1634885868492,24.12
1634885868507,48.53
1634885868523,73.11
1634885868539,97.7
1634885868554,122.55
1634885868570,148.07
1634885868585,174.64
1634885868601,202.25
1634885868617,230.85
1634885868632,260.78
1634885868648,292.95
1634885868664,328.43
1634885868679,367.44
1634885868695,408.34
1634885868710,447.09
1634885868726,478.14
1634885868742,496.17
1634885868757,498.12
1634885868773,484.42
1634885868789,458.7
1634885868804,426.33
1634885868820,392.52
1634885868835,361.06
1634885868851,333.98
1634885868867,311.99
1634885868882,294.91
1634885868898,281.71
1634885868914,270.43
1634885868929,258.32
1634885868945,242.56
1634885868960,221.43
1634885868976,195.12
1634885868992,165.56
1634885869007,135.29
1634885869023,106.02
1634885869039,77.72
1634885869054,48.76
1634885869070,16.99
1634885869085,-19.08
1634885869101,-59.58
1634885869117,-103.39
1634885869132,-148.88
1634885869148,-194.42
1634885869164,-238.71
1634885869179,-280.54
1634885869195,-318.42
1634885869210,-350.45
1634885869226,-374.52
1634885869242,-388.94
1634885869257,-393.1
1634885869273,-387.81
1634885869289,-375.01
1634885869304,-356.97
1634885869320,-335.34
1634885869335,-310.52
1634885869351,-281.75
1634885869367,-247.83
1634885869382,-208.19
1634885869398,-163.71
1634885869414,-116.71
1634885869429,-70.23
1634885869445,-27.03
1634885869460,11.14
1634885869476,43.68
1634885869492,70.66
1634885869507,92.24
1634885869523,108.43
1634885869539,119.14
1634885869554,124.58
1634885869570,125.49
1634885869585,122.98
1634885869601,118.25
1634885869617,112.17
1634885869632,105.09
1634885869648,96.93
1634885869664,87.5
1634885869679,76.77
1634885869695,65.05
1634885869710,52.87
1634885869726,40.8
1634885869742,29.25
1634885869757,18.45
1634885869773,8.5
1634885869789,-0.53
1634885869804,-8.54
1634885869820,-15.43
1634885869835,-21.12
1634885869851,-25.57
1634885869867,-28.76
1634885869882,-30.61
1634885869898,-31.0
1634885869914,-30.01
1634885869929,-28.03
1634885869945,-25.9
1634885869960,-24.74
1634885869976,-25.55
1634885869992,-28.83
1634885870007,-34.29
1634885870023,-40.86
1634885870039,-46.96
1634885870054,-50.94
1634885870070,-51.46
1634885870085,-47.82
1634885870101,-40.12
1634885870117,-29.28
1634885870132,-16.8
1634885870148,-4.29
1634885870164,7.11
1634885870179,17.22
1634885870195,26.78
1634885870210,36.98
1634885870226,48.73
1634885870242,62.15
1634885870257,76.47
1634885870273,90.59
1634885870289,103.78
1634885870304,116.0
1634885870320,127.79
1634885870335,139.63
1634885870351,151.45
1634885870367,162.5
1634885870382,171.83
1634885870398,178.94
1634885870414,184.15
1634885870429,188.47
1634885870445,193.13
1634885870460,198.96
1634885870476,206.18
1634885870492,214.51
1634885870507,223.48
1634885870523,232.71
1634885870539,242.05
1634885870554,251.46
1634885870570,260.96
1634885870585,270.55
1634885870601,280.24
1634885870617,289.96
1634885870632,299.42
1634885870648,307.92
1634885870664,314.28
1634885870679,317.06
1634885870695,314.99
1634885870710,307.28
1634885870726,293.73
1634885870742,274.6
1634885870757,250.31
1634885870773,221.33
1634885870789,188.31
1634885870804,152.33
1634885870820,115.06
1634885870835,78.55
1634885870851,44.65
1634885870867,14.48
1634885870882,-11.92
1634885870898,-35.37
1634885870914,-57.04
1634885870929,-77.85
1634885870945,-98.09
1634885870960,-117.35
1634885870976,-134.76
1634885870992,-149.32
1634885871007,-160.34
1634885871023,-167.69
1634885871039,-172.07
1634885871054,-174.94
1634885871070,-178.02
1634885871085,-182.74
1634885871101,-189.7
1634885871117,-198.53
1634885871132,-208.19
1634885871148,-217.6
1634885871164,-226.27
1634885871179,-234.54
1634885871195,-243.37
1634885871210,-253.69
1634885871226,-265.71
1634885871242,-278.25
1634885871257,-288.62
1634885871273,-293.06
1634885871289,-287.64
1634885871304,-269.41
1634885871320,-237.45
1634885871335,-193.3
1634885871351,-140.81
1634885871367,-85.28
1634885871382,-32.11
1634885871398,14.62
1634885871414,52.86
1634885871429,82.62
1634885871445,104.84
1634885871460,120.04
1634885871476,127.32
1634885871492,124.42
1634885871507,108.53
1634885871523,77.66
1634885871539,31.76
1634885871554,-26.88
1634885871570,-93.91
1634885871585,-163.43
1634885871601,-228.62
1634885871617,-282.54
1634885871632,-319.11
1634885871648,-334.29
1634885871664,-327.17
1634885871679,-300.18
1634885871695,-258.4
1634885871711,-208.07
1634885871726,-154.99
1634885871742,-103.71
1634885871757,-57.39
1634885871773,-18.19
1634885871789,12.62
1634885871804,34.78
1634885871820,49.31
1634885871836,58.38
1634885871851,64.65
1634885871867,70.23
1634885871882,75.93
1634885871898,81.28
1634885871914,85.04
1634885871929,86.23
1634885871945,84.8
1634885871961,81.64
1634885871976,78.07
1634885871992,75.12
1634885872007,72.97
1634885872023,70.96
1634885872039,68.07
1634885872054,63.63
1634885872070,57.77
1634885872086,51.45
1634885872101,46.0
1634885872117,42.6
1634885872132,41.74
1634885872148,43.17
1634885872164,46.02
1634885872179,49.18
1634885872195,51.65
1634885872211,52.73
1634885872226,52.2
1634885872242,50.29
1634885872257,47.7
1634885872273,45.3
1634885872289,43.82
1634885872304,43.39
1634885872320,43.45
1634885872336,42.98
1634885872351,40.97
1634885872367,37.04
1634885872382,31.66
1634885872398,25.93
1634885872414,21.05
1634885872429,17.7
1634885872445,15.76
1634885872461,14.45
1634885872476,12.83
1634885872492,10.31
1634885872507,6.91
1634885872523,3.17
1634885872539,-0.15
1634885872554,-2.4
1634885872570,-3.22
1634885872586,-2.61
1634885872601,-0.93
1634885872617,1.14
1634885872632,2.78
1634885872648,3.25
1634885872664,2.18
1634885872679,-0.28
1634885872695,-3.43
1634885872711,-6.33
1634885872726,-8.18
1634885872742,-8.67
1634885872757,-8.15
1634885872773,-7.41
1634885872789,-7.34
1634885872804,-8.55
1634885872820,-11.15
1634885872836,-14.73
1634885872851,-18.54
1634885872867,-21.78
1634885872882,-23.87
1634885872898,-24.68
1634885872914,-24.5
1634885872929,-23.94
1634885872945,-23.61
1634885872961,-23.92
1634885872976,-24.89
1634885872992,-26.23
1634885873007,-27.51
1634885873023,-28.41
1634885873039,-28.84
1634885873054,-28.92
1634885873070,-28.85
1634885873086,-28.77
1634885873101,-28.58
1634885873117,-27.97
1634885873132,-26.45
1634885873148,-23.56
1634885873164,-18.94
1634885873179,-12.57
1634885873195,-4.85
1634885873211,3.42
1634885873226,11.2
1634885873242,17.46
1634885873257,21.52
1634885873273,23.25
1634885873289,23.08
1634885873304,21.76
1634885873320,20.01
1634885873336,18.25
1634885873351,16.43
1634885873367,14.29
1634885873382,11.55
1634885873398,8.27
1634885873414,4.85
1634885873429,1.93
1634885873445,-0.06
1634885873461,-1.08
1634885873476,-1.6
1634885873492,-2.37
1634885873507,-3.96
1634885873523,-6.42
1634885873539,-9.14
1634885873554,-11.19
1634885873570,-11.74
1634885873586,-10.55
1634885873601,-8.14
1634885873617,-5.56
1634885873632,-3.9
1634885873648,-3.7
1634885873664,-4.75
1634885873679,-6.15
1634885873695,-6.81
1634885873711,-5.97
1634885873726,-3.54
1634885873742,-0.13
1634885873757,3.42
1634885873773,6.39
1634885873789,8.53
1634885873804,9.98
1634885873820,10.94
1634885873836,11.45
1634885873851,11.31
1634885873867,10.35
1634885873882,8.65
1634885873898,6.78
1634885873914,5.5
1634885873929,5.49
1634885873945,6.92
1634885873961,9.38
1634885873976,12.09
1634885873992,14.28
1634885874007,15.44
1634885874023,15.37
1634885874039,14.09
1634885874054,11.6
1634885874070,7.98
1634885874086,3.36
1634885874101,-1.89
1634885874117,-7.19
1634885874132,-11.87
1634885874148,-15.4
1634885874164,-17.58
1634885874179,-18.6
1634885874195,-18.88
1634885874211,-18.75
1634885874226,-18.25
1634885874242,-17.0
1634885874257,-14.52
1634885874273,-10.52
1634885874289,-5.17
1634885874304,0.74
1634885874320,6.16
1634885874336,10.12
1634885874351,12.11
1634885874367,12.21
1634885874382,10.91
1634885874398,8.65
1634885874414,5.81
1634885874429,2.66
1634885874445,-0.6
1634885874461,-3.72
1634885874476,-6.52
1634885874492,-8.94
1634885874507,-11.12
1634885874523,-13.34
1634885874539,-16.1
1634885874554,-19.66
1634885874570,-23.9
1634885874586,-28.37
1634885874601,-32.66
1634885874617,-36.57
1634885874632,-40.25
1634885874648,-44.05
1634885874664,-48.35
1634885874679,-53.87
1634885874695,-61.15
1634885874711,-70.41
1634885874726,-81.39
1634885874742,-93.35
1634885874757,-105.09
1634885874773,-115.05
1634885874789,-121.67
1634885874804,-123.8
1634885874820,-121.54
1634885874836,-115.69
1634885874851,-107.08
1634885874867,-95.96
1634885874882,-82.03
1634885874898,-65.02
1634885874914,-45.48
1634885874929,-25.29
1634885874945,-3.34
1634885874961,19.16
1634885874976,39.9
1634885874992,56.88
1634885875007,69.81
1634885875023,80.35
1634885875039,91.15
1634885875054,104.28
1634885875070,120.14
1634885875086,135.96
1634885875101,149.32
1634885875117,158.15
1634885875132,161.38
1634885875148,159.33
1634885875164,153.38
1634885875179,145.26
1634885875195,136.11
1634885875211,126.14
1634885875226,115.38
1634885875242,103.49
1634885875257,90.62
1634885875273,77.96
1634885875289,67.35
1634885875304,60.3
1634885875320,57.08
1634885875336,56.56
1634885875351,57.05
1634885875367,57.3
1634885875382,57.01
1634885875398,56.79
1634885875414,57.6
1634885875429,60.04
1634885875445,63.8
1634885875461,67.85
1634885875476,70.88
1634885875492,71.78
1634885875507,69.82
1634885875523,64.41
1634885875539,55.11
1634885875554,41.91
1634885875570,25.45
1634885875586,7.14
1634885875601,-11.17
1634885875617,-27.66
1634885875632,-41.09
1634885875648,-50.91
1634885875664,-57.13
1634885875679,-59.91
1634885875695,-59.13
1634885875711,-54.54
1634885875726,-46.1
1634885875742,-34.45
1634885875757,-20.94
1634885875773,-7.28
1634885875789,5.12
1634885875804,15.8
1634885875820,25.42
1634885875836,35.61
1634885875851,48.33
1634885875867,65.26
1634885875882,87.12
1634885875898,113.27
1634885875914,141.4
1634885875929,167.75
1634885875945,187.88
1634885875961,197.88
1634885875976,195.69
1634885875992,181.78
1634885876007,158.69
1634885876023,129.77
1634885876039,97.6
1634885876054,62.93
1634885876070,25.04
1634885876086,-17.06
1634885876101,-63.25
1634885876117,-111.77
1634885876132,-159.54
1634885876148,-203.63
1634885876164,-242.64
1634885876179,-277.13
1634885876195,-309.02
1634885876211,-340.74
1634885876226,-374.36
1634885876242,-411.2
1634885876257,-451.46
1634885876273,-493.54
1634885876289,-533.66
1634885876304,-565.93
1634885876320,-583.76
1634885876336,-581.9
1634885876351,-558.68
1634885876367,-516.86
1634885876382,-462.63
1634885876398,-403.24
1634885876414,-344.4
1634885876429,-288.86
1634885876445,-236.71
1634885876461,-186.69
1634885876476,-137.57
1634885876492,-88.82
1634885876507,-40.55
1634885876523,6.8
1634885876539,52.48
1634885876554,95.01
1634885876570,132.21
1634885876586,161.62
1634885876601,181.52
1634885876617,191.45
1634885876632,192.67
1634885876648,187.77
1634885876664,179.89
1634885876679,172.03
1634885876695,166.62
1634885876711,165.17
1634885876726,168.11
1634885876742,174.63
1634885876757,182.8
1634885876773,190.08
1634885876789,194.1
1634885876804,193.37
1634885876820,187.69
1634885876836,177.97
1634885876851,165.65
1634885876867,152.15
1634885876882,138.49
1634885876898,125.25
1634885876914,112.8
1634885876929,101.49
1634885876945,91.78
1634885876961,84.09
1634885876976,78.73
1634885876992,75.72
1634885877007,74.75
1634885877023,75.18
1634885877039,76.1
1634885877054,76.54
1634885877070,75.67
1634885877086,72.94
1634885877101,68.28
1634885877117,62.1
1634885877132,55.09
1634885877148,48.02
1634885877164,41.42
1634885877179,35.45
1634885877195,29.99
1634885877211,24.76
1634885877226,19.59
1634885877242,14.56
1634885877257,9.96
1634885877273,6.13
1634885877289,3.32
1634885877304,1.47
1634885877320,0.27
