time,bvp
1648531510011,-110.82
1648531510027,-111.75
1648531510043,-111.07
1648531510058,-107.78
1648531510074,-101.5
1648531510089,-92.49
1648531510105,-81.53
1648531510121,-69.63
1648531510136,-57.81
1648531510152,-46.88
1648531510168,-37.33
1648531510183,-29.36
1648531510199,-22.89
1648531510214,-17.74
1648531510230,-13.6
1648531510246,-10.12
1648531510261,-7.02
1648531510277,-4.04
1648531510293,-1.08
1648531510308,1.88
1648531510324,4.73
1648531510339,7.3
1648531510355,9.43
1648531510371,11.03
1648531510386,12.04
1648531510402,12.49
1648531510418,12.38
1648531510433,11.72
1648531510449,10.51
1648531510464,8.79
1648531510480,6.66
1648531510496,4.27
1648531510511,1.86
1648531510527,-0.4
1648531510543,-2.38
1648531510558,-4.17
1648531510574,-6.0
1648531510589,-8.26
1648531510605,-11.31
1648531510621,-15.24
1648531510636,-19.65
1648531510652,-23.58
1648531510668,-25.72
1648531510683,-24.78
1648531510699,-20.03
1648531510714,-11.68
1648531510730,-0.92
1648531510746,10.37
1648531510761,20.17
1648531510777,26.95
1648531510793,30.01
1648531510808,29.48
1648531510824,26.11
1648531510839,20.91
1648531510855,14.89
1648531510871,8.97
1648531510886,3.95
1648531510902,0.54
1648531510918,-0.72
1648531510933,0.41
1648531510949,3.75
1648531510964,8.69
1648531510980,14.36
1648531510996,19.91
1648531511011,24.73
1648531511027,28.65
1648531511043,31.75
1648531511058,34.27
1648531511074,36.36
1648531511089,37.93
1648531511105,38.76
1648531511121,38.58
1648531511136,37.22
1648531511152,34.72
1648531511168,31.32
1648531511183,27.37
1648531511199,23.24
1648531511214,19.19
1648531511230,15.28
1648531511246,11.37
1648531511261,7.14
1648531511277,2.22
1648531511293,-3.68
1648531511308,-10.49
1648531511324,-17.67
1648531511339,-24.2
1648531511355,-28.74
1648531511371,-30.06
1648531511386,-27.46
1648531511402,-21.02
1648531511418,-11.71
1648531511433,-1.02
1648531511449,9.4
1648531511464,18.23
1648531511480,24.7
1648531511496,28.62
1648531511511,30.2
1648531511527,29.82
1648531511543,27.99
1648531511558,25.27
1648531511574,22.3
1648531511589,19.8
1648531511605,18.39
1648531511621,18.46
1648531511636,19.97
1648531511652,22.47
1648531511668,25.22
1648531511683,27.47
1648531511699,28.71
1648531511714,28.85
1648531511730,28.16
1648531511746,27.07
1648531511761,25.87
1648531511777,24.61
1648531511793,23.05
1648531511808,20.85
1648531511824,17.77
1648531511839,13.87
1648531511855,9.47
1648531511871,5.03
1648531511886,1.02
1648531511902,-2.32
1648531511918,-4.98
1648531511933,-7.26
1648531511949,-9.54
1648531511964,-12.3
1648531511980,-15.83
1648531511996,-20.21
1648531512011,-25.09
1648531512027,-29.71
1648531512043,-32.94
1648531512058,-33.59
1648531512074,-30.8
1648531512089,-24.35
1648531512105,-14.86
1648531512121,-3.62
1648531512136,7.73
1648531512152,17.7
1648531512168,25.27
1648531512183,30.03
1648531512199,32.04
1648531512214,31.64
1648531512230,29.31
1648531512246,25.65
1648531512261,21.4
1648531512277,17.42
1648531512293,14.54
1648531512308,13.29
1648531512324,13.71
1648531512339,15.33
1648531512355,17.37
1648531512371,19.01
1648531512386,19.76
1648531512402,19.55
1648531512418,18.63
1648531512433,17.35
1648531512449,15.97
1648531512464,14.44
1648531512480,12.58
1648531512496,10.12
1648531512511,7.0
1648531512527,3.36
1648531512543,-0.41
1648531512558,-3.9
1648531512574,-6.77
1648531512589,-8.98
1648531512605,-10.72
1648531512621,-12.39
1648531512636,-14.46
1648531512652,-17.27
1648531512668,-20.96
1648531512683,-25.32
1648531512699,-29.71
1648531512714,-33.11
1648531512730,-34.36
1648531512746,-32.38
1648531512761,-26.64
1648531512777,-17.41
1648531512793,-5.79
1648531512808,6.58
1648531512824,17.97
1648531512839,27.06
1648531512855,33.21
1648531512871,36.42
1648531512886,37.17
1648531512902,36.1
1648531512918,33.79
1648531512933,30.81
1648531512949,27.68
1648531512964,24.9
1648531512980,22.87
1648531512996,21.79
1648531513011,21.58
1648531513027,21.9
1648531513043,22.31
1648531513058,22.42
1648531513074,21.99
1648531513089,20.96
1648531513105,19.38
1648531513121,17.33
1648531513136,14.9
1648531513152,12.21
1648531513168,9.33
1648531513183,6.4
1648531513199,3.54
1648531513214,0.83
1648531513230,-1.7
1648531513246,-4.07
1648531513261,-6.37
1648531513277,-8.77
1648531513293,-11.49
1648531513308,-14.73
1648531513324,-18.54
1648531513339,-22.61
1648531513355,-26.23
1648531513371,-28.41
1648531513386,-28.13
1648531513402,-24.77
1648531513418,-18.35
1648531513433,-9.62
1648531513449,0.15
1648531513464,9.54
1648531513480,17.33
1648531513496,22.75
1648531513511,25.53
1648531513527,25.84
1648531513543,24.15
1648531513558,21.09
1648531513574,17.39
1648531513589,13.71
1648531513605,10.63
1648531513621,8.47
1648531513636,7.36
1648531513652,7.19
1648531513668,7.74
1648531513683,8.74
1648531513699,9.88
1648531513714,10.89
1648531513730,11.54
1648531513746,11.65
1648531513761,11.14
1648531513777,10.04
1648531513793,8.48
1648531513808,6.62
1648531513824,4.59
1648531513839,2.5
1648531513855,0.41
1648531513871,-1.63
1648531513886,-3.59
1648531513902,-5.52
1648531513918,-7.56
1648531513933,-9.91
1648531513949,-12.77
1648531513964,-16.18
1648531513980,-19.9
1648531513996,-23.31
1648531514011,-25.56
1648531514027,-25.76
1648531514043,-23.3
1648531514058,-18.08
1648531514074,-10.63
1648531514089,-1.96
1648531514105,6.73
1648531514121,14.31
1648531514136,20.0
1648531514152,23.42
1648531514168,24.58
1648531514183,23.76
1648531514199,21.44
1648531514214,18.23
1648531514230,14.8
1648531514246,11.81
1648531514261,9.76
1648531514277,8.89
1648531514293,9.09
1648531514308,10.01
1648531514324,11.12
1648531514339,11.99
1648531514355,12.36
1648531514371,12.19
1648531514386,11.6
1648531514402,10.76
1648531514418,9.78
1648531514433,8.67
1648531514449,7.36
1648531514464,5.79
1648531514480,3.92
1648531514496,1.8
1648531514511,-0.45
1648531514527,-2.77
1648531514543,-5.08
1648531514558,-7.38
1648531514574,-9.69
1648531514589,-12.06
1648531514605,-14.59
1648531514621,-17.3
1648531514636,-20.1
1648531514652,-22.6
1648531514668,-24.15
1648531514683,-23.94
1648531514699,-21.36
1648531514714,-16.26
1648531514730,-9.17
1648531514746,-1.19
1648531514761,6.41
1648531514777,12.54
1648531514793,16.62
1648531514808,18.59
1648531514824,18.79
1648531514839,17.7
1648531514855,15.76
1648531514871,13.37
1648531514886,10.79
1648531514902,8.32
1648531514918,6.21
1648531514933,4.72
1648531514949,3.98
1648531514964,3.98
1648531514980,4.58
1648531514996,5.52
1648531515011,6.51
1648531515027,7.29
1648531515043,7.67
1648531515058,7.56
1648531515074,6.98
1648531515089,5.99
1648531515105,4.62
1648531515121,2.91
1648531515136,0.88
1648531515152,-1.38
1648531515168,-3.75
1648531515183,-6.07
1648531515199,-8.22
1648531515214,-10.2
1648531515230,-12.13
1648531515246,-14.25
1648531515261,-16.67
1648531515277,-19.33
1648531515293,-21.74
1648531515308,-23.14
1648531515324,-22.68
1648531515339,-19.81
1648531515355,-14.55
1648531515371,-7.53
1648531515386,0.18
1648531515402,7.41
1648531515418,13.18
1648531515433,16.99
1648531515449,18.73
1648531515464,18.64
1648531515480,17.09
1648531515496,14.47
1648531515511,11.18
1648531515527,7.65
1648531515543,4.31
1648531515558,1.55
1648531515574,-0.3
1648531515589,-1.1
1648531515605,-0.92
1648531515621,-0.07
1648531515636,1.01
1648531515652,1.87
1648531515668,2.14
1648531515683,1.63
1648531515699,0.35
1648531515714,-1.52
1648531515730,-3.72
1648531515746,-5.97
1648531515761,-8.01
1648531515777,-9.73
1648531515793,-11.13
1648531515808,-12.33
1648531515824,-13.55
1648531515839,-14.96
1648531515855,-16.7
1648531515871,-18.74
1648531515886,-20.93
1648531515902,-22.89
1648531515918,-24.1
1648531515933,-23.98
1648531515949,-22.02
1648531515964,-18.04
1648531515980,-12.29
1648531515996,-5.45
1648531516011,1.5
1648531516027,7.55
1648531516043,11.96
1648531516058,14.39
1648531516074,14.94
1648531516089,14.02
1648531516105,12.2
1648531516121,9.97
1648531516136,7.75
1648531516152,5.82
1648531516168,4.36
1648531516183,3.52
1648531516199,3.35
1648531516214,3.83
1648531516230,4.79
1648531516246,5.96
1648531516261,7.03
1648531516277,7.74
1648531516293,7.95
1648531516308,7.65
1648531516324,6.86
1648531516339,5.65
1648531516355,4.06
1648531516371,2.12
1648531516386,-0.08
1648531516402,-2.41
1648531516418,-4.76
1648531516433,-7.05
1648531516449,-9.33
1648531516464,-11.74
1648531516480,-14.48
1648531516496,-17.66
1648531516511,-21.19
1648531516527,-24.68
1648531516543,-27.44
1648531516558,-28.6
1648531516574,-27.4
1648531516589,-23.45
1648531516605,-16.98
1648531516621,-8.84
1648531516636,-0.3
1648531516652,7.32
1648531516668,13.01
1648531516683,16.35
1648531516699,17.43
1648531516714,16.77
1648531516730,14.96
1648531516746,12.58
1648531516761,10.05
1648531516777,7.71
1648531516793,5.83
1648531516808,4.66
1648531516824,4.36
1648531516839,4.89
1648531516855,6.03
1648531516871,7.36
1648531516886,8.41
1648531516902,8.83
1648531516918,8.45
1648531516933,7.35
1648531516949,5.8
1648531516964,4.11
1648531516980,2.51
1648531516996,1.11
1648531517011,-0.1
1648531517027,-1.26
1648531517043,-2.49
1648531517058,-3.93
1648531517074,-5.7
1648531517089,-7.89
1648531517105,-10.56
1648531517121,-13.65
1648531517136,-16.9
1648531517152,-19.79
1648531517168,-21.58
1648531517183,-21.55
1648531517199,-19.23
1648531517214,-14.65
1648531517230,-8.41
1648531517246,-1.5
1648531517261,4.98
1648531517277,10.18
1648531517293,13.6
1648531517308,15.22
1648531517324,15.32
1648531517339,14.28
1648531517355,12.5
1648531517371,10.3
1648531517386,8.02
1648531517402,6.0
1648531517418,4.57
1648531517433,4.02
1648531517449,4.43
1648531517464,5.7
1648531517480,7.5
1648531517496,9.41
1648531517511,10.98
1648531517527,11.88
1648531517543,11.92
1648531517558,11.11
1648531517574,9.57
1648531517589,7.51
1648531517605,5.14
1648531517621,2.65
1648531517636,0.2
1648531517652,-2.09
1648531517668,-4.14
1648531517683,-5.91
1648531517699,-7.43
1648531517714,-8.87
1648531517730,-10.46
1648531517746,-12.37
1648531517761,-14.59
1648531517777,-16.77
1648531517793,-18.29
1648531517808,-18.4
1648531517824,-16.53
1648531517839,-12.53
1648531517855,-6.8
1648531517871,-0.19
1648531517886,6.29
1648531517902,11.68
1648531517918,15.3
1648531517933,16.9
1648531517949,16.62
1648531517964,14.87
1648531517980,12.2
1648531517996,9.19
1648531518011,6.37
1648531518027,4.15
1648531518043,2.78
1648531518058,2.35
1648531518074,2.79
1648531518089,3.85
1648531518105,5.21
1648531518121,6.48
1648531518136,7.36
1648531518152,7.69
1648531518168,7.46
1648531518183,6.78
1648531518199,5.79
1648531518214,4.57
1648531518230,3.12
1648531518246,1.42
1648531518261,-0.51
1648531518277,-2.56
1648531518293,-4.57
1648531518308,-6.43
1648531518324,-8.06
1648531518339,-9.57
1648531518355,-11.09
1648531518371,-12.76
1648531518386,-14.6
1648531518402,-16.39
1648531518418,-17.68
1648531518433,-17.92
1648531518449,-16.59
1648531518464,-13.42
1648531518480,-8.57
1648531518496,-2.6
1648531518511,3.61
1648531518527,9.13
1648531518543,13.21
1648531518558,15.42
1648531518574,15.75
1648531518589,14.51
1648531518605,12.17
1648531518621,9.28
1648531518636,6.25
1648531518652,3.43
1648531518668,1.04
1648531518683,-0.72
1648531518699,-1.68
1648531518714,-1.74
1648531518730,-0.93
1648531518746,0.52
1648531518761,2.2
1648531518777,3.61
1648531518793,4.32
1648531518808,4.14
1648531518824,3.15
1648531518839,1.65
1648531518855,-0.05
1648531518871,-1.7
1648531518886,-3.27
1648531518902,-4.77
1648531518918,-6.26
1648531518933,-7.78
1648531518949,-9.33
1648531518964,-10.99
1648531518980,-12.88
1648531518996,-15.14
1648531519011,-17.71
1648531519027,-20.18
1648531519043,-21.85
1648531519058,-21.85
1648531519074,-19.59
1648531519089,-14.96
1648531519105,-8.53
1648531519121,-1.33
1648531519136,5.43
1648531519152,10.78
1648531519168,14.17
1648531519183,15.54
1648531519199,15.13
1648531519214,13.31
1648531519230,10.46
1648531519246,6.95
1648531519261,3.21
1648531519277,-0.22
1648531519293,-2.79
1648531519308,-4.06
1648531519324,-3.9
1648531519339,-2.54
1648531519355,-0.52
1648531519371,1.51
1648531519386,2.96
1648531519402,3.46
1648531519418,2.93
1648531519433,1.52
1648531519449,-0.46
1648531519464,-2.62
1648531519480,-4.61
1648531519496,-6.26
1648531519511,-7.58
1648531519527,-8.76
1648531519543,-10.1
1648531519558,-11.83
1648531519574,-14.1
1648531519590,-16.93
1648531519605,-20.18
1648531519621,-23.51
1648531519636,-26.37
1648531519652,-28.01
1648531519668,-27.61
1648531519683,-24.64
1648531519699,-19.09
1648531519715,-11.63
1648531519730,-3.46
1648531519746,4.06
1648531519761,9.86
1648531519777,13.44
1648531519793,14.86
1648531519808,14.53
1648531519824,13.0
1648531519840,10.7
1648531519855,8.01
1648531519871,5.32
1648531519886,3.04
1648531519902,1.61
1648531519918,1.33
1648531519933,2.24
1648531519949,4.08
1648531519965,6.28
1648531519980,8.14
1648531519996,9.03
1648531520011,8.61
1648531520027,6.88
1648531520043,4.23
1648531520058,1.24
1648531520074,-1.52
1648531520090,-3.73
1648531520105,-5.38
1648531520121,-6.71
1648531520136,-8.06
1648531520152,-9.69
1648531520168,-11.79
1648531520183,-14.42
1648531520199,-17.5
1648531520215,-20.8
1648531520230,-23.76
1648531520246,-25.59
1648531520261,-25.42
1648531520277,-22.62
1648531520293,-17.15
1648531520308,-9.68
1648531520324,-1.38
1648531520340,6.41
1648531520355,12.61
1648531520371,16.64
1648531520386,18.47
1648531520402,18.47
1648531520418,17.21
1648531520433,15.25
1648531520449,13.12
1648531520465,11.17
1648531520480,9.65
1648531520496,8.66
1648531520511,8.28
1648531520527,8.46
1648531520543,9.11
1648531520558,10.01
1648531520574,10.87
1648531520590,11.3
1648531520605,11.05
1648531520621,10.01
1648531520636,8.34
1648531520652,6.35
1648531520668,4.35
1648531520683,2.53
1648531520699,0.89
1648531520715,-0.7
1648531520730,-2.39
1648531520746,-4.26
1648531520761,-6.34
1648531520777,-8.65
1648531520793,-11.23
1648531520808,-14.1
1648531520824,-17.11
1648531520840,-19.81
1648531520855,-21.48
1648531520871,-21.32
1648531520886,-18.74
1648531520902,-13.68
1648531520918,-6.76
1648531520933,0.89
1648531520949,8.01
1648531520965,13.58
1648531520980,17.07
1648531520996,18.54
1648531521011,18.41
1648531521027,17.28
1648531521043,15.65
1648531521058,13.93
1648531521074,12.42
1648531521090,11.35
1648531521105,10.87
1648531521121,11.02
1648531521136,11.71
1648531521152,12.71
1648531521168,13.74
1648531521183,14.51
1648531521199,14.85
1648531521215,14.65
1648531521230,13.86
1648531521246,12.5
1648531521261,10.65
1648531521277,8.45
1648531521293,6.09
1648531521308,3.79
1648531521324,1.73
1648531521340,0.02
1648531521355,-1.35
1648531521371,-2.45
1648531521386,-3.4
1648531521402,-4.36
1648531521418,-5.49
1648531521433,-6.97
1648531521449,-8.87
1648531521465,-11.05
1648531521480,-13.12
1648531521496,-14.41
1648531521511,-14.21
1648531521527,-11.98
1648531521543,-7.68
1648531521558,-1.78
1648531521574,4.75
1648531521590,10.85
1648531521605,15.63
1648531521621,18.65
1648531521636,19.89
1648531521652,19.63
1648531521668,18.24
1648531521683,16.1
1648531521699,13.54
1648531521715,10.98
1648531521730,8.83
1648531521746,7.47
1648531521761,7.06
1648531521777,7.46
1648531521793,8.27
1648531521808,9.02
1648531521824,9.3
1648531521840,8.98
1648531521855,8.14
1648531521871,7.03
1648531521886,5.89
1648531521902,4.87
1648531521918,3.94
1648531521933,3.01
1648531521949,1.95
1648531521965,0.69
1648531521980,-0.72
1648531521996,-2.15
1648531522011,-3.42
1648531522027,-4.46
1648531522043,-5.3
1648531522058,-6.1
1648531522074,-7.08
1648531522090,-8.43
1648531522105,-10.22
1648531522121,-12.35
1648531522136,-14.6
1648531522152,-16.6
1648531522168,-17.91
1648531522183,-18.05
1648531522199,-16.58
1648531522215,-13.29
1648531522230,-8.36
1648531522246,-2.39
1648531522261,3.71
1648531522277,9.0
1648531522293,12.79
1648531522308,14.8
1648531522324,15.18
1648531522340,14.31
1648531522355,12.67
1648531522371,10.7
1648531522386,8.76
1648531522402,7.23
1648531522418,6.45
1648531522433,6.64
1648531522449,7.82
1648531522465,9.77
1648531522480,12.01
1648531522496,14.03
1648531522511,15.45
1648531522527,16.15
1648531522543,16.25
1648531522558,16.03
1648531522574,15.73
1648531522590,15.49
1648531522605,15.34
1648531522621,15.25
1648531522636,15.17
1648531522652,15.16
1648531522668,15.3
1648531522683,15.72
1648531522699,16.56
1648531522715,17.93
1648531522730,19.89
1648531522746,22.43
1648531522761,25.41
1648531522777,28.51
1648531522793,31.39
1648531522808,33.81
1648531522824,35.95
1648531522840,38.5
1648531522855,42.54
1648531522871,49.14
1648531522886,58.8
1648531522902,71.18
1648531522918,85.17
1648531522933,99.38
1648531522949,112.77
1648531522965,125.08
1648531522980,136.82
1648531522996,148.92
1648531523011,162.28
1648531523027,177.5
1648531523043,194.82
1648531523058,214.12
1648531523074,235.07
1648531523090,257.02
1648531523105,278.97
1648531523121,299.53
1648531523136,317.13
1648531523152,330.49
1648531523168,338.96
1648531523183,342.62
1648531523199,341.88
1648531523215,337.07
1648531523230,328.02
1648531523246,314.19
1648531523261,295.16
1648531523277,271.16
1648531523293,243.48
1648531523308,214.24
1648531523324,185.72
1648531523340,159.59
1648531523355,136.5
1648531523371,116.12
1648531523386,97.69
1648531523402,80.5
1648531523418,64.34
1648531523433,49.34
1648531523449,35.73
1648531523465,23.41
1648531523480,12.0
1648531523496,0.96
1648531523511,-10.24
1648531523527,-21.8
1648531523543,-33.6
1648531523558,-45.35
1648531523574,-56.76
1648531523590,-67.75
1648531523605,-78.56
1648531523621,-89.64
1648531523636,-101.48
1648531523652,-114.42
1648531523668,-128.6
1648531523683,-143.98
1648531523699,-160.52
1648531523715,-178.0
1648531523730,-195.82
1648531523746,-212.84
1648531523761,-227.36
1648531523777,-237.72
1648531523793,-242.95
1648531523808,-243.11
1648531523824,-239.26
1648531523840,-232.8
1648531523855,-224.73
1648531523871,-215.31
1648531523886,-204.25
1648531523902,-191.31
1648531523918,-176.89
1648531523933,-162.05
1648531523949,-147.92
1648531523965,-135.05
1648531523980,-122.9
1648531523996,-110.05
1648531524011,-94.89
1648531524027,-76.43
1648531524043,-54.68
1648531524058,-30.58
1648531524074,-5.56
1648531524090,19.0
1648531524105,42.03
1648531524121,62.86
1648531524136,81.17
1648531524152,96.96
1648531524168,110.63
1648531524183,122.95
1648531524199,134.67
1648531524215,146.06
1648531524230,156.22
1648531524246,162.81
1648531524261,162.4
1648531524277,151.49
1648531524293,127.97
1648531524308,92.19
1648531524324,47.23
1648531524340,-1.78
1648531524355,-49.1
1648531524371,-89.76
1648531524386,-120.66
1648531524402,-140.87
1648531524418,-151.5
1648531524433,-155.1
1648531524449,-154.93
1648531524465,-154.16
1648531524480,-155.13
1648531524496,-158.91
1648531524511,-165.18
1648531524527,-172.63
1648531524543,-179.62
1648531524558,-184.76
1648531524574,-187.07
1648531524590,-185.88
1648531524605,-180.64
1648531524621,-171.06
1648531524636,-157.74
1648531524652,-142.54
1648531524668,-128.39
1648531524683,-118.4
1648531524699,-114.53
1648531524715,-116.58
1648531524730,-122.25
1648531524746,-128.18
1648531524761,-131.42
1648531524777,-130.55
1648531524793,-126.01
1648531524808,-119.57
1648531524824,-113.46
1648531524840,-109.6
1648531524855,-109.2
1648531524871,-112.79
1648531524886,-120.22
1648531524902,-130.85
1648531524918,-143.57
1648531524933,-156.89
1648531524949,-169.1
1648531524965,-178.52
1648531524980,-183.87
1648531524996,-184.51
1648531525011,-180.68
1648531525027,-173.33
1648531525043,-163.77
1648531525058,-153.15
1648531525074,-141.95
1648531525090,-129.96
1648531525105,-116.55
1648531525121,-101.22
1648531525136,-84.09
1648531525152,-66.13
1648531525168,-48.76
1648531525183,-33.43
1648531525199,-21.1
1648531525215,-11.98
1648531525230,-5.63
1648531525246,-1.23
1648531525261,1.99
1648531525277,4.43
1648531525293,5.94
1648531525308,6.02
1648531525324,4.13
1648531525340,0.07
1648531525355,-5.88
1648531525371,-12.97
1648531525386,-20.18
1648531525402,-26.43
1648531525418,-30.67
1648531525433,-32.08
1648531525449,-30.21
1648531525465,-25.25
1648531525480,-18.32
1648531525496,-11.37
1648531525511,-6.77
1648531525527,-6.53
1648531525543,-11.48
1648531525558,-21.07
1648531525574,-33.68
1648531525590,-47.6
1648531525605,-61.72
1648531525621,-75.91
1648531525636,-90.53
1648531525652,-105.66
1648531525668,-120.46
1648531525683,-133.17
1648531525699,-141.64
1648531525715,-144.41
1648531525730,-141.27
1648531525746,-133.34
1648531525761,-122.51
1648531525777,-110.51
1648531525793,-98.25
1648531525808,-85.82
1648531525824,-73.02
1648531525840,-60.01
1648531525855,-47.67
1648531525871,-37.24
1648531525886,-29.58
1648531525902,-24.45
1648531525918,-20.49
1648531525933,-15.7
1648531525949,-8.43
1648531525965,1.99
1648531525980,15.24
1648531525996,30.51
1648531526011,47.2
1648531526027,65.36
1648531526043,85.49
1648531526058,108.13
1648531526074,133.38
1648531526090,160.7
1648531526105,189.07
1648531526121,217.26
1648531526136,243.95
1648531526152,267.83
1648531526168,287.5
1648531526183,301.5
1648531526199,308.54
1648531526215,307.63
1648531526230,298.2
1648531526246,280.4
1648531526261,255.34
1648531526277,225.36
1648531526293,194.05
1648531526308,165.72
1648531526324,144.53
1648531526340,133.4
1648531526355,132.88
1648531526371,140.76
1648531526386,152.24
1648531526402,160.82
1648531526418,159.65
1648531526433,143.3
1648531526449,109.42
1648531526465,59.87
1648531526480,0.74
1648531526496,-59.11
1648531526511,-110.48
1648531526527,-146.38
1648531526543,-163.5
1648531526558,-162.21
1648531526574,-145.43
1648531526590,-117.09
1648531526605,-81.21
1648531526621,-41.78
1648531526636,-2.96
1648531526652,30.92
1648531526668,56.11
1648531526683,70.51
1648531526699,74.48
1648531526715,70.73
1648531526730,63.29
1648531526746,55.87
1648531526761,50.65
1648531526777,47.85
1648531526793,46.32
1648531526808,44.43
1648531526824,41.12
1648531526840,36.28
1648531526855,30.62
1648531526871,25.17
1648531526886,20.59
1648531526902,16.84
1648531526918,13.26
1648531526933,9.1
1648531526949,3.89
1648531526965,-2.19
1648531526980,-8.49
1648531526996,-14.23
1648531527011,-18.89
1648531527027,-22.38
1648531527043,-24.97
1648531527058,-27.07
1648531527074,-28.97
1648531527090,-30.74
1648531527105,-32.24
1648531527121,-33.15
1648531527136,-33.18
1648531527152,-32.13
1648531527168,-30.02
1648531527183,-27.13
1648531527199,-24.05
1648531527215,-21.48
1648531527230,-20.07
1648531527246,-20.15
1648531527261,-21.62
1648531527277,-24.03
1648531527293,-26.84
1648531527308,-29.65
1648531527324,-32.3
1648531527340,-34.79
1648531527355,-37.12
1648531527371,-39.16
1648531527386,-40.69
1648531527402,-41.62
1648531527418,-42.09
1648531527433,-42.5
1648531527449,-43.27
1648531527465,-44.62
1648531527480,-46.39
1648531527496,-48.11
1648531527511,-49.25
1648531527527,-49.54
1648531527543,-49.15
1648531527558,-48.56
1648531527574,-48.41
1648531527590,-49.21
1648531527605,-51.16
1648531527621,-54.19
1648531527636,-57.94
1648531527652,-62.03
1648531527668,-66.13
1648531527683,-70.09
1648531527699,-73.81
1648531527715,-77.25
1648531527730,-80.3
1648531527746,-82.68
1648531527761,-83.97
1648531527777,-83.55
1648531527793,-80.8
1648531527808,-75.09
1648531527824,-66.11
1648531527840,-53.99
1648531527855,-39.42
1648531527871,-23.6
1648531527886,-7.94
1648531527902,6.27
1648531527918,18.17
1648531527933,27.41
1648531527949,34.15
1648531527965,38.79
1648531527980,41.83
1648531527996,43.76
1648531528011,44.89
1648531528027,45.49
1648531528043,45.75
1648531528058,45.84
1648531528074,45.91
1648531528090,46.14
1648531528105,46.56
1648531528121,47.07
1648531528136,47.39
1648531528152,47.18
1648531528168,46.22
1648531528183,44.57
1648531528199,42.63
1648531528215,40.97
1648531528230,40.06
1648531528246,40.07
1648531528261,40.81
1648531528277,41.8
1648531528293,42.39
1648531528308,42.01
1648531528324,40.15
1648531528340,36.58
1648531528355,31.39
1648531528371,25.11
1648531528386,18.66
1648531528402,13.14
1648531528418,9.47
1648531528433,8.08
1648531528449,8.77
1648531528465,10.81
1648531528480,13.27
1648531528496,15.33
1648531528511,16.44
1648531528527,16.37
1648531528543,15.1
1648531528558,12.68
1648531528574,9.22
1648531528590,4.97
1648531528605,0.27
1648531528621,-4.51
1648531528636,-9.09
1648531528652,-13.47
1648531528668,-17.99
1648531528683,-23.21
1648531528699,-29.62
1648531528715,-37.32
1648531528730,-45.86
1648531528746,-54.32
1648531528761,-61.6
1648531528777,-66.91
1648531528793,-70.16
1648531528808,-72.06
1648531528824,-74.05
1648531528840,-77.79
1648531528855,-84.67
1648531528871,-95.41
1648531528886,-109.83
1648531528902,-126.9
1648531528918,-144.92
1648531528933,-161.8
1648531528949,-175.29
1648531528965,-183.48
1648531528980,-185.23
1648531528996,-180.53
1648531529011,-170.58
1648531529027,-157.41
1648531529043,-143.17
1648531529058,-129.32
1648531529074,-116.25
1648531529090,-103.51
1648531529105,-90.36
1648531529121,-76.54
1648531529136,-62.68
1648531529152,-50.05
1648531529168,-40.03
1648531529183,-33.42
1648531529199,-30.13
1648531529215,-29.33
1648531529230,-29.93
1648531529246,-30.99
1648531529261,-31.89
1648531529277,-32.2
1648531529293,-31.55
1648531529308,-29.44
1648531529324,-25.46
1648531529340,-19.48
1648531529355,-11.91
1648531529371,-3.57
1648531529386,4.44
1648531529402,11.15
1648531529418,15.8
1648531529433,17.77
1648531529449,16.37
1648531529465,10.75
1648531529480,0.15
1648531529496,-15.39
1648531529511,-34.34
1648531529527,-53.31
1648531529543,-67.58
1648531529558,-72.44
1648531529574,-64.73
1648531529590,-44.05
1648531529605,-13.0
1648531529621,23.81
1648531529636,61.2
1648531529652,94.8
1648531529668,121.85
1648531529683,141.13
1648531529699,152.26
1648531529715,155.25
1648531529730,150.31
1648531529746,138.21
1648531529761,120.68
1648531529777,100.46
1648531529793,80.79
1648531529808,64.45
1648531529824,53.04
1648531529840,46.86
1648531529855,45.4
1648531529871,48.26
1648531529886,55.65
1648531529902,68.15
1648531529918,85.81
1648531529933,107.19
1648531529949,129.05
1648531529965,147.2
1648531529980,158.05
1648531529996,160.21
1648531530011,155.03
1648531530027,146.05
1648531530043,137.4
1648531530058,132.29
1648531530074,132.2
1648531530090,137.02
1648531530105,145.75
1648531530121,157.2
1648531530136,170.06
1648531530152,182.72
1648531530168,193.19
1648531530183,199.44
1648531530199,200.29
1648531530215,196.0
1648531530230,188.26
1648531530246,179.32
1648531530261,170.66
1648531530277,162.23
1648531530293,152.72
1648531530308,140.71
1648531530324,125.84
1648531530340,109.15
1648531530355,92.27
1648531530371,76.11
1648531530386,60.1
1648531530402,42.62
1648531530418,22.47
1648531530433,0.18
1648531530449,-21.75
1648531530465,-40.0
1648531530480,-52.07
1648531530496,-57.53
1648531530511,-57.9
1648531530527,-55.44
1648531530543,-51.75
1648531530558,-47.08
1648531530574,-40.74
1648531530590,-32.36
1648531530605,-22.98
1648531530621,-15.19
1648531530636,-12.45
1648531530652,-17.71
1648531530668,-32.06
1648531530683,-53.88
1648531530699,-78.98
1648531530715,-101.62
1648531530730,-116.33
1648531530746,-119.75
1648531530761,-111.64
1648531530777,-94.77
1648531530793,-73.39
1648531530808,-51.51
1648531530824,-31.37
1648531530840,-13.26
1648531530855,3.69
1648531530871,20.17
1648531530886,35.94
1648531530902,49.77
1648531530918,60.21
1648531530933,66.53
1648531530949,69.17
1648531530965,69.39
1648531530980,68.61
1648531530996,67.61
1648531531011,66.22
1648531531027,63.58
1648531531043,58.55
1648531531058,50.4
1648531531074,39.24
1648531531090,26.28
1648531531105,13.46
1648531531121,2.83
1648531531136,-4.36
1648531531152,-8.19
1648531531168,-10.23
1648531531183,-12.77
1648531531199,-18.05
1648531531215,-27.28
1648531531230,-40.11
1648531531246,-54.74
1648531531261,-68.39
1648531531277,-78.14
1648531531293,-81.64
1648531531308,-77.79
1648531531324,-66.95
1648531531340,-50.78
1648531531355,-31.74
1648531531371,-12.31
1648531531386,5.55
1648531531402,20.58
1648531531418,32.04
1648531531433,39.47
1648531531449,42.51
1648531531465,41.05
1648531531480,35.46
1648531531496,26.67
1648531531511,15.88
1648531531527,4.04
1648531531543,-8.41
1648531531558,-21.62
1648531531574,-35.94
1648531531590,-51.5
1648531531605,-68.06
1648531531621,-85.1
1648531531636,-102.08
1648531531652,-118.61
1648531531668,-134.48
1648531531683,-149.43
1648531531699,-162.99
1648531531715,-174.59
1648531531730,-183.76
1648531531746,-190.28
1648531531761,-194.12
1648531531777,-195.21
1648531531793,-193.16
1648531531808,-187.23
1648531531824,-176.56
1648531531840,-160.67
1648531531855,-139.86
1648531531871,-115.33
1648531531886,-88.7
1648531531902,-61.46
1648531531918,-34.41
1648531531933,-7.57
1648531531949,19.43
1648531531965,46.79
1648531531980,74.01
1648531531996,99.89
1648531532011,122.94
1648531532027,141.99
1648531532043,156.72
1648531532058,167.63
1648531532074,175.58
1648531532090,181.19
1648531532105,184.43
1648531532121,184.69
1648531532136,181.24
1648531532152,173.86
1648531532168,162.95
1648531532183,149.4
1648531532199,134.03
1648531532215,117.23
1648531532230,99.01
1648531532246,79.31
1648531532261,58.43
1648531532277,37.13
1648531532293,16.38
1648531532308,-3.06
1648531532324,-20.63
1648531532340,-35.75
1648531532355,-47.53
1648531532371,-54.7
1648531532386,-56.07
1648531532402,-51.31
1648531532418,-41.38
1648531532433,-28.56
1648531532449,-15.77
1648531532465,-5.6
1648531532480,0.39
1648531532496,1.81
1648531532511,-1.04
1648531532527,-7.74
1648531532543,-18.08
1648531532558,-31.82
1648531532574,-48.21
1648531532590,-65.61
1648531532605,-81.51
1648531532621,-93.14
1648531532636,-98.39
1648531532652,-96.45
1648531532668,-88.04
1648531532683,-75.03
1648531532699,-59.63
1648531532715,-43.68
1648531532730,-28.34
1648531532746,-14.26
1648531532761,-1.96
1648531532777,7.95
1648531532793,14.97
1648531532808,19.06
1648531532824,21.09
1648531532840,22.74
1648531532855,25.92
1648531532871,32.1
1648531532886,41.74
1648531532902,54.09
1648531532918,67.53
1648531532933,80.16
1648531532949,90.35
1648531532965,97.05
1648531532980,99.78
1648531532996,98.52
1648531533011,93.5
1648531533027,85.0
1648531533043,73.35
1648531533058,58.92
1648531533074,42.24
1648531533090,24.01
1648531533105,5.23
1648531533121,-12.8
1648531533136,-28.54
1648531533152,-40.54
1648531533168,-47.83
1648531533183,-50.34
1648531533199,-49.28
1648531533215,-47.12
1648531533230,-47.33
1648531533246,-53.52
1648531533261,-68.16
1648531533277,-91.23
1648531533293,-119.74
1648531533308,-148.28
1648531533324,-170.84
1648531533340,-182.96
1648531533355,-183.36
1648531533371,-174.07
1648531533386,-159.12
1648531533402,-142.63
1648531533418,-127.32
1648531533433,-114.12
1648531533449,-102.77
1648531533465,-92.93
1648531533480,-84.65
1648531533496,-78.25
1648531533511,-73.72
1648531533527,-70.26
1648531533543,-66.49
1648531533558,-61.06
1648531533574,-53.34
1648531533590,-43.68
1648531533605,-33.3
1648531533621,-24.01
1648531533636,-17.74
1648531533652,-15.97
1648531533668,-18.91
1648531533683,-24.98
1648531533699,-30.72
1648531533715,-31.77
1648531533730,-24.52
1648531533746,-7.8
1648531533761,16.44
1648531533777,43.86
1648531533793,69.74
1648531533808,90.89
1648531533824,106.65
1648531533840,118.3
1648531533855,127.51
1648531533871,134.87
1648531533886,139.44
1648531533902,139.4
1648531533918,133.33
1648531533933,121.09
1648531533949,103.83
1648531533965,83.17
1648531533980,60.33
1648531533996,35.71
1648531534011,9.09
1648531534027,-19.6
1648531534043,-49.53
1648531534058,-78.84
1648531534074,-105.02
1648531534090,-125.85
1648531534105,-140.22
1648531534121,-148.46
1648531534136,-151.94
1648531534152,-152.16
1648531534168,-149.82
1648531534183,-144.56
1648531534199,-135.26
1648531534215,-121.1
1648531534230,-102.24
1648531534246,-80.01
1648531534261,-56.33
1648531534277,-32.88
1648531534293,-10.45
1648531534308,11.13
1648531534324,32.5
1648531534340,54.12
1648531534355,75.83
1648531534371,97.0
1648531534386,116.82
1648531534402,134.54
1648531534418,149.57
1648531534433,161.37
1648531534449,169.53
1648531534465,173.87
1648531534480,174.77
1648531534496,173.03
1648531534511,169.58
1648531534527,164.82
1648531534543,158.2
1648531534558,148.33
1648531534574,133.74
1648531534590,113.89
1648531534605,89.74
1648531534621,63.63
1648531534636,38.37
1648531534652,16.36
1648531534668,-0.86
1648531534683,-12.49
1648531534699,-18.09
1648531534715,-17.63
1648531534730,-11.92
1648531534746,-3.16
1648531534761,5.17
1648531534777,9.17
1648531534793,5.97
1648531534808,-5.21
1648531534824,-22.92
1648531534840,-44.56
1648531534855,-67.66
1648531534871,-90.32
1648531534886,-110.74
1648531534902,-126.81
1648531534918,-136.34
1648531534933,-138.0
1648531534949,-132.35
1648531534965,-122.09
1648531534980,-111.35
1648531534996,-104.29
1648531535011,-103.72
1648531535027,-110.37
1648531535043,-122.85
1648531535058,-138.29
1648531535074,-152.96
1648531535090,-162.98
1648531535105,-165.04
1648531535121,-157.21
1648531535136,-139.71
1648531535152,-115.01
1648531535168,-87.15
1648531535183,-60.49
1648531535199,-38.31
1648531535215,-21.95
1648531535230,-11.16
1648531535246,-4.71
1648531535261,-0.99
1648531535277,1.72
1648531535293,5.26
1648531535308,11.41
1648531535324,21.71
1648531535340,37.11
1648531535355,57.58
1648531535371,82.02
1648531535386,109.07
1648531535402,137.93
1648531535418,168.72
1648531535433,202.04
1648531535449,237.88
1648531535465,274.95
1648531535480,310.62
1648531535496,341.81
1648531535511,365.85
1648531535527,380.77
1648531535543,384.84
1648531535558,376.15
1648531535574,352.97
1648531535590,315.07
1648531535605,265.15
1648531535621,208.97
1648531535636,153.83
1648531535652,105.76
1648531535668,67.43
1648531535683,37.67
1648531535699,13.01
1648531535715,-10.08
1648531535730,-33.59
1648531535746,-57.72
1648531535762,-81.61
1648531535777,-104.1
1648531535793,-124.04
1648531535808,-140.13
1648531535824,-151.05
1648531535840,-155.82
1648531535855,-154.37
1648531535871,-147.81
1648531535887,-137.98
1648531535902,-126.66
1648531535918,-114.76
1648531535933,-102.37
1648531535949,-89.14
1648531535965,-74.95
1648531535980,-60.15
1648531535996,-45.33
1648531536012,-30.79
1648531536027,-16.27
1648531536043,-1.16
1648531536058,14.91
1648531536074,31.42
1648531536090,46.81
1648531536105,58.89
1648531536121,65.48
1648531536137,65.03
1648531536152,56.85
1648531536168,40.93
1648531536183,17.81
1648531536199,-11.41
1648531536215,-44.7
1648531536230,-78.83
1648531536246,-109.5
1648531536262,-132.29
1648531536277,-144.11
1648531536293,-144.54
1648531536308,-136.17
1648531536324,-123.63
1648531536340,-111.68
1648531536355,-103.41
1648531536371,-99.26
1648531536387,-97.45
1648531536402,-95.38
1648531536418,-91.01
1648531536433,-83.58
1648531536449,-73.47
1648531536465,-61.44
1648531536480,-47.8
1648531536496,-32.43
1648531536512,-15.13
1648531536527,3.67
1648531536543,22.52
1648531536558,39.32
1648531536574,52.03
1648531536590,59.42
1648531536605,61.53
1648531536621,59.49
1648531536637,54.95
1648531536652,49.5
1648531536668,44.21
1648531536683,39.36
1648531536699,34.52
1648531536715,28.65
1648531536730,20.4
1648531536746,8.56
1648531536762,-7.3
1648531536777,-26.45
1648531536793,-46.91
1648531536808,-66.05
1648531536824,-81.48
1648531536840,-91.89
1648531536855,-97.36
1648531536871,-99.03
1648531536887,-98.26
1648531536902,-95.95
1648531536918,-92.28
1648531536933,-87.03
1648531536949,-80.16
1648531536965,-72.2
1648531536980,-64.07
1648531536996,-56.57
1648531537012,-49.8
1648531537027,-43.08
1648531537043,-35.39
1648531537058,-26.16
1648531537074,-15.83
1648531537090,-5.88
1648531537105,1.77
1648531537121,5.75
1648531537137,5.87
1648531537152,3.25
1648531537168,-0.2
1648531537183,-2.78
1648531537199,-3.77
1648531537215,-3.72
1648531537230,-3.96
1648531537246,-6.01
1648531537262,-10.68
1648531537277,-17.76
1648531537293,-26.13
1648531537308,-34.0
1648531537324,-39.44
1648531537340,-40.77
1648531537355,-36.78
1648531537371,-26.96
1648531537387,-11.69
1648531537402,7.78
1648531537418,29.36
1648531537433,50.38
1648531537449,68.31
1648531537465,81.31
1648531537480,88.7
1648531537496,90.99
1648531537512,89.48
1648531537527,85.68
1648531537543,80.89
1648531537558,76.02
1648531537574,71.64
1648531537590,68.25
1648531537605,66.26
1648531537621,65.98
1648531537637,67.48
1648531537652,70.54
1648531537668,74.71
1648531537683,79.5
1648531537699,84.68
1648531537715,90.35
1648531537730,96.84
1648531537746,104.34
1648531537762,112.59
1648531537777,120.59
1648531537793,126.55
1648531537808,128.28
1648531537824,123.73
1648531537840,111.83
1648531537855,92.9
1648531537871,68.78
1648531537887,42.27
1648531537902,16.37
1648531537918,-6.48
1648531537933,-24.69
1648531537949,-37.51
1648531537965,-44.73
1648531537980,-46.33
1648531537996,-42.41
1648531538012,-33.3
1648531538027,-19.71
1648531538043,-2.8
1648531538058,15.93
1648531538074,34.82
1648531538090,52.37
1648531538105,67.55
1648531538121,79.86
1648531538137,89.47
1648531538152,96.98
1648531538168,103.17
1648531538183,108.45
1648531538199,112.57
1648531538215,114.43
1648531538230,112.42
1648531538246,104.88
1648531538262,90.79
1648531538277,70.22
1648531538293,44.32
1648531538308,15.07
1648531538324,-15.35
1648531538340,-45.47
1648531538355,-75.27
1648531538371,-106.25
1648531538387,-140.5
1648531538402,-179.29
1648531538418,-221.44
1648531538433,-262.99
1648531538449,-298.04
1648531538465,-320.57
1648531538480,-326.6
1648531538496,-315.3
1648531538512,-289.05
1648531538527,-252.39
1648531538543,-210.56
1648531538558,-168.3
1648531538574,-129.21
1648531538590,-95.62
1648531538605,-68.59
1648531538621,-47.98
1648531538637,-32.72
1648531538652,-21.19
1648531538668,-11.86
1648531538683,-3.78
1648531538699,3.45
1648531538715,9.97
1648531538730,16.13
1648531538746,22.53
1648531538762,29.93
1648531538777,38.9
1648531538793,49.52
1648531538808,61.34
1648531538824,73.8
1648531538840,86.55
1648531538855,99.81
1648531538871,114.24
1648531538887,130.46
1648531538902,148.54
1648531538918,167.81
1648531538933,187.1
1648531538949,205.13
1648531538965,220.91
1648531538980,233.75
1648531538996,242.8
1648531539012,246.32
1648531539027,241.37
1648531539043,224.17
1648531539058,192.06
1648531539074,145.79
1648531539090,90.71
1648531539105,36.01
1648531539121,-8.37
1648531539137,-35.55
1648531539152,-44.31
1648531539168,-39.02
1648531539183,-27.26
1648531539199,-15.95
1648531539215,-8.52
1648531539230,-4.58
1648531539246,-1.97
1648531539262,0.99
1648531539277,4.12
1648531539293,5.81
1648531539308,4.76
1648531539324,0.78
1648531539340,-4.73
1648531539355,-9.58
1648531539371,-12.05
1648531539387,-12.35
1648531539402,-11.61
1648531539418,-11.06
1648531539433,-11.16
1648531539449,-10.76
1648531539465,-9.32
1648531539480,-7.11
1648531539496,-4.9
1648531539512,-3.94
1648531539527,-6.7
1648531539543,-15.09
1648531539558,-29.77
1648531539574,-49.79
1648531539590,-71.3
1648531539605,-91.75
1648531539621,-109.32
1648531539637,-122.4
1648531539652,-130.05
1648531539668,-134.29
1648531539683,-138.04
1648531539699,-144.39
1648531539715,-155.34
1648531539730,-168.63
1648531539746,-183.49
1648531539762,-199.31
1648531539777,-215.03
1648531539793,-230.38
1648531539808,-248.81
1648531539824,-274.48
1648531539840,-310.59
1648531539855,-357.27
1648531539871,-407.75
1648531539887,-456.83
1648531539902,-500.62
1648531539918,-536.21
1648531539933,-542.3
1648531539949,-504.45
1648531539965,-418.61
1648531539980,-295.03
1648531539996,-175.35
1648531540012,-73.94
1648531540027,4.91
1648531540043,60.07
1648531540058,97.64
1648531540074,121.18
1648531540090,133.64
1648531540105,140.48
1648531540121,148.04
1648531540137,161.11
1648531540152,184.19
1648531540168,213.65
1648531540183,242.31
1648531540199,264.62
1648531540215,278.47
1648531540230,283.92
1648531540246,283.32
1648531540262,279.59
1648531540277,275.55
1648531540293,276.41
1648531540308,283.72
1648531540324,296.51
1648531540340,312.17
1648531540355,326.06
1648531540371,331.69
1648531540387,323.37
1648531540402,297.98
1648531540418,256.46
1648531540433,205.31
1648531540449,151.32
1648531540465,100.67
1648531540480,58.32
1648531540496,27.2
1648531540512,8.28
1648531540527,1.42
1648531540543,5.75
1648531540558,19.79
1648531540574,41.92
1648531540590,68.54
1648531540605,95.1
1648531540621,117.69
1648531540637,133.95
1648531540652,143.74
1648531540668,148.55
1648531540683,150.3
1648531540699,150.19
1648531540715,148.48
1648531540730,144.2
1648531540746,136.35
1648531540762,124.84
1648531540777,110.65
1648531540793,95.35
1648531540808,80.22
1648531540824,65.6
1648531540840,51.08
1648531540855,36.01
1648531540871,20.12
1648531540887,3.86
1648531540902,-11.76
1648531540918,-25.55
1648531540933,-36.45
1648531540949,-43.84
1648531540965,-47.61
1648531540980,-48.21
1648531540996,-46.64
1648531541012,-44.31
1648531541027,-42.87
1648531541043,-43.87
1648531541058,-48.26
1648531541074,-55.9
1648531541090,-65.28
1648531541105,-73.63
1648531541121,-77.63
1648531541137,-74.5
1648531541152,-63.03
1648531541168,-44.05
1648531541183,-20.07
1648531541199,5.78
1648531541215,31.01
1648531541230,54.53
1648531541246,76.76
1648531541262,98.85
1648531541277,121.6
1648531541293,144.55
1648531541308,165.8
1648531541324,182.49
1648531541340,191.57
1648531541355,190.51
1648531541371,177.77
1648531541387,152.96
1648531541402,117.07
1648531541418,72.74
1648531541433,24.18
1648531541449,-23.34
1648531541465,-64.87
1648531541480,-97.55
1648531541496,-121.91
1648531541512,-141.65
1648531541527,-161.86
1648531541543,-186.25
1648531541558,-214.87
1648531541574,-243.69
1648531541590,-266.23
1648531541605,-276.66
1648531541621,-272.52
1648531541637,-256.02
1648531541652,-233.3
1648531541668,-212.15
1648531541683,-199.52
1648531541699,-199.76
1648531541715,-213.84
1648531541730,-239.56
1648531541746,-272.21
1648531541762,-305.44
1648531541777,-332.3
1648531541793,-346.6
1648531541808,-344.3
1648531541824,-324.76
1648531541840,-291.07
1648531541855,-249.34
1648531541871,-206.63
1648531541887,-168.81
1648531541902,-138.84
1648531541918,-116.47
1648531541933,-99.29
1648531541949,-84.43
1648531541965,-69.86
1648531541980,-54.72
1648531541996,-38.91
1648531542012,-22.34
1648531542027,-4.71
1648531542043,14.35
1648531542058,34.93
1648531542074,56.56
1648531542090,78.45
1648531542105,99.73
1648531542121,119.77
1648531542137,137.96
1648531542152,153.59
1648531542168,165.63
1648531542183,172.83
1648531542199,174.09
1648531542215,168.68
1648531542230,156.67
1648531542246,139.1
1648531542262,118.08
1648531542277,96.64
1648531542293,78.21
1648531542308,65.77
1648531542324,60.95
1648531542340,63.55
1648531542355,71.65
1648531542371,82.4
1648531542387,92.92
1648531542402,101.17
1648531542418,106.06
1648531542433,107.33
1648531542449,104.97
1648531542465,98.96
1648531542480,89.28
1648531542496,76.16
1648531542512,60.49
1648531542527,43.89
1648531542543,28.46
1648531542558,16.13
1648531542574,7.96
1648531542590,3.63
1648531542605,1.54
1648531542621,-0.42
1648531542637,-4.02
1648531542652,-9.86
1648531542668,-17.3
1648531542683,-24.92
1648531542699,-31.35
1648531542715,-35.95
1648531542730,-39.01
1648531542746,-41.45
1648531542762,-44.08
1648531542777,-47.2
1648531542793,-50.34
1648531542808,-52.47
1648531542824,-52.34
1648531542840,-49.02
1648531542855,-42.11
1648531542871,-31.93
1648531542887,-19.61
1648531542902,-6.77
1648531542918,4.71
1648531542933,13.23
1648531542949,17.9
1648531542965,19.02
1648531542980,18.23
1648531542996,18.12
1648531543012,21.43
1648531543027,29.9
1648531543043,43.49
1648531543058,60.08
1648531543074,76.25
1648531543090,88.59
1648531543105,95.03
1648531543121,95.37
1648531543137,90.98
1648531543152,83.87
1648531543168,75.63
1648531543183,67.11
1648531543199,58.64
1648531543215,50.51
1648531543230,43.11
1648531543246,36.65
1648531543262,30.95
1648531543277,25.64
1648531543293,20.61
1648531543308,16.49
1648531543324,14.55
1648531543340,15.75
1648531543355,19.67
1648531543371,24.03
1648531543387,25.47
1648531543402,21.17
1648531543418,10.69
1648531543433,-3.59
1648531543449,-17.51
1648531543465,-27.21
1648531543480,-31.21
1648531543496,-30.93
1648531543512,-29.73
1648531543527,-30.89
1648531543543,-36.02
1648531543558,-44.55
1648531543574,-54.44
1648531543590,-63.59
1648531543605,-70.68
1648531543621,-75.51
1648531543637,-78.36
1648531543652,-79.03
1648531543668,-76.3
1648531543683,-68.16
1648531543699,-52.72
1648531543715,-29.34
1648531543730,0.58
1648531543746,33.67
1648531543762,65.46
1648531543777,91.92
1648531543793,110.77
1648531543808,122.12
1648531543824,128.19
1648531543840,132.1
1648531543855,136.47
1648531543871,142.52
1648531543887,149.95
1648531543902,157.54
1648531543918,164.07
1648531543933,168.77
1648531543949,171.29
1648531543965,171.45
1648531543980,168.99
1648531543996,163.71
1648531544012,155.56
1648531544027,144.81
1648531544043,131.66
1648531544058,116.0
1648531544074,97.37
1648531544090,75.39
1648531544105,50.42
1648531544121,24.03
1648531544137,-1.37
1648531544152,-23.34
1648531544168,-40.53
1648531544183,-53.17
1648531544199,-62.86
1648531544215,-71.79
1648531544230,-81.85
1648531544246,-94.15
1648531544262,-108.96
1648531544277,-125.79
1648531544293,-143.27
1648531544308,-159.09
1648531544324,-170.04
1648531544340,-172.82
1648531544355,-165.31
1648531544371,-147.74
1648531544387,-122.98
1648531544402,-95.59
1648531544418,-70.24
1648531544433,-49.99
1648531544449,-35.55
1648531544465,-25.73
1648531544480,-18.61
1648531544496,-12.73
1648531544512,-7.58
1648531544527,-3.4
1648531544543,-0.38
1648531544558,1.83
1648531544574,4.28
1648531544590,8.33
1648531544605,15.05
1648531544621,24.81
1648531544637,37.16
1648531544652,51.07
1648531544668,65.3
1648531544683,78.74
1648531544699,90.53
1648531544715,100.13
1648531544730,107.16
1648531544746,111.41
1648531544762,112.99
1648531544777,112.46
1648531544793,110.87
1648531544808,109.41
1648531544824,108.82
1648531544840,108.69
1648531544855,107.35
1648531544871,102.11
1648531544887,90.3
1648531544902,70.48
1648531544918,43.31
1648531544933,11.65
1648531544949,-20.15
1648531544965,-47.48
1648531544980,-66.69
1648531544996,-75.78
1648531545012,-74.62
1648531545027,-64.55
1648531545043,-47.85
1648531545058,-27.18
1648531545074,-5.23
1648531545090,15.49
1648531545105,32.79
1648531545121,45.01
1648531545137,51.34
1648531545152,52.11
1648531545168,48.84
1648531545183,43.97
1648531545199,39.95
1648531545215,38.41
1648531545230,39.53
1648531545246,42.1
1648531545262,44.15
1648531545277,44.05
1648531545293,41.29
1648531545308,36.67
1648531545324,31.81
1648531545340,28.18
1648531545355,26.46
1648531545371,26.3
1648531545387,26.75
1648531545402,26.8
1648531545418,25.8
1648531545433,23.67
1648531545449,20.65
1648531545465,17.05
1648531545480,13.0
1648531545496,8.49
1648531545512,3.45
1648531545527,-2.04
1648531545543,-7.68
1648531545558,-12.91
1648531545574,-16.97
1648531545590,-19.08
1648531545605,-18.65
1648531545621,-15.47
1648531545637,-9.86
1648531545652,-2.68
1648531545668,4.89
1648531545683,11.6
1648531545699,16.4
1648531545715,18.71
1648531545730,18.42
1648531545746,16.01
1648531545762,12.64
1648531545777,10.11
1648531545793,10.63
1648531545808,16.23
1648531545824,27.92
1648531545840,44.82
1648531545855,64.07
1648531545871,81.37
1648531545887,92.43
1648531545902,94.49
1648531545918,87.4
1648531545933,73.77
1648531545949,57.89
1648531545965,44.13
1648531545980,35.45
1648531545996,32.57
1648531546012,34.23
1648531546027,38.19
1648531546043,42.31
1648531546058,45.34
1648531546074,46.95
1648531546090,47.27
1648531546105,46.24
1648531546121,43.08
1648531546137,36.25
1648531546152,23.78
1648531546168,3.78
1648531546183,-24.79
1648531546199,-61.72
1648531546215,-105.17
1648531546230,-151.67
1648531546246,-196.64
1648531546262,-235.39
1648531546277,-264.44
1648531546293,-282.42
1648531546308,-290.24
1648531546324,-290.36
1648531546340,-285.61
1648531546355,-278.25
1648531546371,-269.53
1648531546387,-259.82
1648531546402,-249.15
1648531546418,-237.7
1648531546433,-226.12
1648531546449,-215.6
1648531546465,-207.69
1648531546480,-203.93
1648531546496,-205.21
1648531546512,-211.25
1648531546527,-220.35
1648531546543,-229.66
1648531546558,-236.01
1648531546574,-236.88
1648531546590,-231.09
1648531546605,-218.74
1648531546621,-200.72
1648531546637,-178.11
1648531546652,-151.91
1648531546668,-123.13
1648531546683,-92.86
1648531546699,-62.09
1648531546715,-31.42
1648531546730,-0.95
1648531546746,29.42
1648531546762,59.15
1648531546777,86.59
1648531546793,109.07
1648531546808,123.88
1648531546824,129.47
1648531546840,126.38
1648531546855,117.29
1648531546871,106.21
1648531546887,97.31
1648531546902,93.9
1648531546918,97.97
1648531546933,110.1
1648531546949,129.67
1648531546965,154.93
1648531546980,183.11
1648531546996,210.79
1648531547012,234.55
1648531547027,251.86
1648531547043,261.65
1648531547058,264.52
1648531547074,262.38
1648531547090,257.73
1648531547105,252.81
1648531547121,248.93
1648531547137,245.95
1648531547152,242.39
1648531547168,236.17
1648531547183,225.43
1648531547199,209.43
1648531547215,188.89
1648531547230,165.66
1648531547246,141.93
1648531547262,119.25
1648531547277,98.13
1648531547293,78.15
1648531547308,58.63
1648531547324,39.05
1648531547340,19.01
1648531547355,-2.07
1648531547371,-25.24
1648531547387,-51.84
1648531547402,-82.79
1648531547418,-117.83
1648531547433,-155.25
1648531547449,-192.27
1648531547465,-225.77
1648531547480,-252.9
1648531547496,-271.19
1648531547512,-278.36
1648531547527,-272.16
1648531547543,-250.68
1648531547558,-213.34
1648531547574,-161.88
1648531547590,-100.65
1648531547605,-35.95
1648531547621,25.68
1648531547637,79.39
1648531547652,123.34
1648531547668,158.76
1648531547683,188.76
1648531547699,216.31
1648531547715,242.3
1648531547730,264.63
1648531547746,278.82
1648531547762,279.74
1648531547777,263.78
1648531547793,230.48
1648531547808,182.78
1648531547824,126.17
1648531547840,66.82
1648531547855,9.75
1648531547871,-42.14
1648531547887,-88.13
1648531547902,-128.63
1648531547918,-163.94
1648531547933,-193.61
1648531547949,-216.64
1648531547965,-232.11
1648531547980,-239.73
1648531547996,-239.79
1648531548012,-232.71
1648531548027,-218.94
1648531548043,-199.09
1648531548058,-174.56
1648531548074,-147.97
1648531548090,-122.8
1648531548105,-102.23
1648531548121,-87.77
1648531548137,-78.72
1648531548152,-72.67
1648531548168,-67.02
1648531548183,-60.33
1648531548199,-52.52
1648531548215,-44.02
1648531548230,-34.73
1648531548246,-23.41
1648531548262,-8.37
1648531548277,11.25
1648531548293,34.6
1648531548308,59.11
1648531548324,81.45
1648531548340,98.77
1648531548355,109.33
1648531548371,112.58
1648531548387,108.74
1648531548402,98.39
1648531548418,82.32
1648531548433,61.78
1648531548449,38.63
1648531548465,15.34
1648531548480,-5.5
1648531548496,-21.86
1648531548512,-32.82
1648531548527,-39.04
1648531548543,-42.48
1648531548558,-45.86
1648531548574,-51.64
1648531548590,-61.06
1648531548605,-73.3
1648531548621,-85.42
1648531548637,-93.05
1648531548652,-91.94
1648531548668,-79.87
1648531548683,-58.03
1648531548699,-31.21
1648531548715,-6.28
1648531548730,10.28
1648531548746,14.93
1648531548762,8.42
1648531548777,-4.86
1648531548793,-18.93
1648531548808,-28.89
1648531548824,-32.69
1648531548840,-31.18
1648531548855,-26.78
1648531548871,-21.72
1648531548887,-16.97
1648531548902,-12.26
1648531548918,-7.1
1648531548933,-1.6
1648531548949,3.29
1648531548965,6.28
1648531548980,6.41
1648531548996,3.39
1648531549012,-2.41
1648531549027,-10.24
1648531549043,-19.08
1648531549058,-27.35
1648531549074,-32.69
1648531549090,-32.4
1648531549105,-24.34
1648531549121,-8.24
1648531549137,13.71
1648531549152,37.1
1648531549168,56.75
1648531549183,68.44
1648531549199,70.35
1648531549215,63.38
1648531549230,50.44
1648531549246,34.98
1648531549262,19.69
1648531549277,5.7
1648531549293,-7.45
1648531549308,-21.17
1648531549324,-36.84
1648531549340,-55.14
1648531549355,-75.61
1648531549371,-96.9
1648531549387,-117.22
1648531549402,-134.64
1648531549418,-147.24
1648531549433,-153.14
1648531549449,-150.76
1648531549465,-139.19
1648531549480,-118.83
1648531549496,-91.57
1648531549512,-60.37
1648531549527,-28.3
1648531549543,2.37
1648531549558,30.61
1648531549574,56.3
1648531549590,79.49
1648531549605,99.73
1648531549621,115.89
1648531549637,126.42
1648531549652,129.95
1648531549668,125.62
1648531549683,113.26
1648531549699,93.35
1648531549715,67.07
1648531549730,36.37
1648531549746,3.82
1648531549762,-27.65
1648531549777,-55.23
1648531549793,-76.78
1648531549808,-91.14
1648531549824,-98.28
1648531549840,-99.03
1648531549855,-94.71
1648531549871,-86.68
1648531549887,-76.08
1648531549902,-63.72
1648531549918,-50.3
1648531549933,-36.8
1648531549949,-24.68
1648531549965,-15.61
1648531549980,-10.92
1648531549996,-10.74
1648531550012,-13.7
1648531550027,-17.13
1648531550043,-18.09
1648531550058,-14.49
1648531550074,-5.88
1648531550090,6.68
1648531550105,21.38
1648531550121,36.82
1648531550137,52.74
1648531550152,70.03
1648531550168,89.86
1648531550183,112.7
1648531550199,137.6
1648531550215,162.36
1648531550230,184.18
1648531550246,200.68
1648531550262,210.45
1648531550277,213.0
1648531550293,208.31
1648531550308,196.46
1648531550324,177.62
1648531550340,152.62
1648531550355,123.36
1648531550371,92.94
1648531550387,64.91
1648531550402,42.14
1648531550418,25.67
1648531550433,14.4
1648531550449,5.7
1648531550465,-3.12
1648531550480,-13.44
1648531550496,-24.64
1648531550512,-34.67
1648531550527,-41.38
1648531550543,-43.77
1648531550558,-42.51
1648531550574,-39.33
1648531550590,-35.8
1648531550605,-32.41
1648531550621,-28.41
1648531550637,-22.55
1648531550652,-14.29
1648531550668,-4.57
1648531550683,4.37
1648531550699,10.07
1648531550715,11.22
1648531550730,8.47
1648531550746,4.27
1648531550762,1.65
1648531550777,2.74
1648531550793,7.74
1648531550808,14.89
1648531550824,21.51
1648531550840,25.58
1648531550855,27.02
1648531550871,27.84
1648531550887,31.08
1648531550902,39.09
1648531550918,51.96
1648531550933,67.19
1648531550949,80.59
1648531550965,87.91
1648531550980,86.39
1648531550996,75.45
1648531551012,56.48
1648531551027,32.03
1648531551043,4.89
1648531551058,-22.58
1648531551074,-48.58
1648531551090,-71.94
1648531551105,-91.92
1648531551121,-108.17
1648531551137,-120.63
1648531551152,-129.55
1648531551168,-135.37
1648531551183,-138.67
1648531551199,-140.08
1648531551215,-140.06
1648531551230,-138.53
1648531551246,-134.5
1648531551262,-126.13
1648531551277,-111.22
1648531551293,-88.38
1648531551308,-57.81
1648531551324,-21.94
1648531551340,15.02
1648531551355,48.13
1648531551371,73.17
1648531551387,87.86
1648531551402,92.3
1648531551418,88.24
1648531551433,77.67
1648531551449,61.19
1648531551465,37.4
1648531551480,3.76
1648531551496,-41.31
1648531551512,-95.92
1648531551527,-153.61
1648531551543,-204.38
1648531551558,-237.83
1648531551574,-246.88
1648531551590,-230.28
1648531551605,-192.45
1648531551621,-141.19
1648531551637,-84.35
1648531551652,-27.84
1648531551668,24.63
1648531551683,70.44
1648531551699,106.89
1648531551715,131.11
1648531551730,141.08
1648531551746,136.97
1648531551762,121.65
1648531551777,99.95
1648531551793,77.01
1648531551808,56.65
1648531551824,40.51
1648531551840,28.21
1648531551855,18.27
1648531551871,9.05
1648531551887,-0.5
1648531551902,-10.59
1648531551918,-20.63
1648531551934,-29.41
1648531551949,-35.2
1648531551965,-35.97
1648531551980,-29.74
1648531551996,-15.25
1648531552012,7.3
1648531552027,35.8
1648531552043,66.28
1648531552059,93.67
1648531552074,112.97
1648531552090,120.43
1648531552105,114.51
1648531552121,96.17
1648531552137,68.6
1648531552152,36.38
1648531552168,4.66
1648531552184,-22.18
1648531552199,-41.31
1648531552215,-51.92
1648531552230,-55.02
1648531552246,-52.66
1648531552262,-47.09
1648531552277,-40.11
1648531552293,-32.99
1648531552309,-26.79
1648531552324,-22.6
1648531552340,-21.25
1648531552355,-22.65
1648531552371,-25.31
1648531552387,-26.64
1648531552402,-23.99
1648531552418,-16.14
1648531552434,-4.08
1648531552449,9.4
1648531552465,21.35
1648531552480,30.29
1648531552496,36.99
1648531552512,43.67
1648531552527,52.28
1648531552543,62.84
1648531552559,73.06
1648531552574,79.44
1648531552590,79.05
1648531552605,71.08
1648531552621,57.1
1648531552637,40.09
1648531552652,22.8
1648531552668,7.15
1648531552684,-6.06
1648531552699,-16.3
1648531552715,-22.71
1648531552730,-24.08
1648531552746,-19.1
1648531552762,-7.08
1648531552777,11.43
1648531552793,34.37
1648531552809,58.25
1648531552824,78.61
1648531552840,91.11
1648531552855,92.77
1648531552871,83.01
1648531552887,63.86
1648531552902,39.17
1648531552918,13.04
1648531552934,-11.66
1648531552949,-33.98
1648531552965,-54.5
1648531552980,-74.04
1648531552996,-92.32
1648531553012,-107.45
1648531553027,-116.47
1648531553043,-116.65
1648531553059,-106.96
1648531553074,-88.72
1648531553090,-65.33
1648531553105,-41.05
1648531553121,-19.5
1648531553137,-2.39
1648531553152,10.64
1648531553168,21.33
1648531553184,31.43
1648531553199,41.26
1648531553215,49.02
1648531553230,51.11
1648531553246,43.27
1648531553262,22.37
1648531553277,-12.08
1648531553293,-57.01
1648531553309,-105.91
1648531553324,-149.91
1648531553340,-179.77
1648531553355,-188.2
1648531553371,-172.08
1648531553387,-133.7
1648531553402,-80.74
1648531553418,-24.47
1648531553434,23.06
1648531553449,52.22
1648531553465,58.45
1648531553480,43.42
1648531553496,14.39
1648531553512,-18.04
1648531553527,-43.16
1648531553543,-53.29
1648531553559,-45.63
1648531553574,-22.49
1648531553590,10.17
1648531553605,45.07
1648531553621,75.92
1648531553637,98.71
1648531553652,112.03
1648531553668,116.43
1648531553684,113.51
1648531553699,105.23
1648531553715,93.67
1648531553730,80.97
1648531553746,69.19
1648531553762,59.96
1648531553777,53.93
1648531553793,50.56
1648531553809,48.28
1648531553824,45.04
1648531553840,39.2
1648531553855,30.19
1648531553871,18.81
1648531553887,6.98
1648531553902,-3.04
1648531553918,-9.57
1648531553934,-12.03
1648531553949,-11.1
1648531553965,-8.39
1648531553980,-5.71
1648531553996,-4.39
1648531554012,-4.86
1648531554027,-6.47
1648531554043,-7.7
1648531554059,-6.62
1648531554074,-1.49
1648531554090,8.53
1648531554105,22.85
1648531554121,39.29
1648531554137,54.29
1648531554152,63.93
1648531554168,65.08
1648531554184,56.38
1648531554199,38.77
1648531554215,15.07
1648531554230,-10.9
1648531554246,-35.69
1648531554262,-57.08
1648531554277,-74.63
1648531554293,-89.34
1648531554309,-102.97
1648531554324,-116.95
1648531554340,-131.47
1648531554355,-145.03
1648531554371,-154.63
1648531554387,-156.64
1648531554402,-148.06
1648531554418,-128.18
1648531554434,-99.71
1648531554449,-69.31
1648531554465,-46.52
1648531554480,-40.93
1648531554496,-58.33
1648531554512,-97.63
1648531554527,-149.97
1648531554543,-201.08
1648531554559,-236.27
1648531554574,-245.5
1648531554590,-226.28
1648531554605,-183.29
1648531554621,-125.45
1648531554637,-62.63
1648531554652,-3.45
1648531554668,45.44
1648531554684,79.46
1648531554699,96.5
1648531554715,97.97
1648531554730,89.21
1648531554746,78.24
1648531554762,72.81
1648531554777,77.06
1648531554793,89.83
1648531554809,105.74
1648531554824,118.47
1648531554840,124.24
1648531554855,123.83
1648531554871,121.85
1648531554887,124.21
1648531554902,135.04
1648531554918,154.63
1648531554934,179.38
1648531554949,203.14
1648531554965,219.42
1648531554980,223.43
1648531554996,213.35
1648531555012,190.51
1648531555027,158.88
1648531555043,124.04
1648531555059,91.79
1648531555074,67.02
1648531555090,52.78
1648531555105,49.91
1648531555121,57.05
1648531555137,71.04
1648531555152,87.43
1648531555168,101.11
1648531555184,107.15
1648531555199,101.56
1648531555215,82.25
1648531555230,49.59
1648531555246,6.76
1648531555262,-40.55
1648531555277,-84.94
1648531555293,-118.64
1648531555309,-135.23
1648531555324,-131.48
1648531555340,-108.45
1648531555355,-71.59
1648531555371,-29.44
1648531555387,8.69
1648531555402,35.39
1648531555418,47.2
1648531555434,45.26
1648531555449,34.3
1648531555465,20.47
1648531555480,9.2
1648531555496,3.62
1648531555512,4.29
1648531555527,9.73
1648531555543,17.59
1648531555559,25.45
1648531555574,31.46
1648531555590,34.54
1648531555605,34.29
1648531555621,31.0
1648531555637,25.77
1648531555652,20.89
1648531555668,19.73
1648531555684,26.19
1648531555699,43.17
1648531555715,71.04
1648531555730,106.66
1648531555746,144.02
1648531555762,176.09
1648531555777,197.19
1648531555793,204.76
1648531555809,199.75
1648531555824,185.54
1648531555840,166.61
1648531555855,147.51
1648531555871,132.4
1648531555887,124.89
1648531555902,127.4
1648531555918,140.24
1648531555934,160.83
1648531555949,183.81
1648531555965,202.45
1648531555980,210.73
1648531555996,205.19
1648531556012,185.55
1648531556027,154.02
1648531556043,113.67
1648531556059,67.07
1648531556074,15.96
1648531556090,-37.99
1648531556105,-92.16
1648531556121,-142.56
1648531556137,-184.57
1648531556152,-214.65
1648531556168,-231.72
1648531556184,-237.61
1648531556199,-236.01
1648531556215,-230.63
1648531556230,-223.48
1648531556246,-214.33
1648531556262,-201.5
1648531556277,-183.36
1648531556293,-159.53
1648531556309,-130.92
1648531556324,-98.93
1648531556340,-64.45
1648531556355,-27.24
1648531556371,13.49
1648531556387,58.07
1648531556402,105.56
1648531556418,153.79
1648531556434,200.25
1648531556449,243.05
1648531556465,281.37
1648531556480,314.93
1648531556496,342.98
1648531556512,363.55
1648531556527,373.74
1648531556543,370.65
1648531556559,352.79
1648531556574,320.87
1648531556590,277.68
1648531556605,227.03
1648531556621,172.33
1648531556637,115.73
1648531556652,57.95
1648531556668,-1.14
1648531556684,-61.51
1648531556699,-122.3
1648531556715,-181.41
1648531556730,-235.78
1648531556746,-282.1
1648531556762,-317.84
1648531556777,-342.11
1648531556793,-355.99
1648531556809,-362.0
1648531556824,-363.06
1648531556840,-361.34
1648531556855,-357.55
1648531556871,-351.25
1648531556887,-341.71
1648531556902,-328.63
1648531556918,-312.76
1648531556934,-295.43
1648531556949,-277.82
1648531556965,-260.5
1648531556980,-243.76
1648531556996,-228.13
1648531557012,-214.88
1648531557027,-205.73
1648531557043,-202.03
1648531557059,-203.63
1648531557074,-208.2
1648531557090,-211.17
1648531557105,-206.51
1648531557121,-188.19
1648531557137,-152.11
1648531557152,-97.72
1648531557168,-28.72
1648531557184,47.57
1648531557199,122.25
1648531557215,187.63
1648531557230,239.28
1648531557246,276.84
1648531557262,302.95
1648531557277,321.03
1648531557293,333.4
1648531557309,340.42
1648531557324,341.22
1648531557340,334.95
1648531557355,321.67
1648531557371,302.05
1648531557387,276.25
1648531557402,243.24
1648531557418,200.32
1648531557434,144.18
1648531557449,72.85
1648531557465,-12.18
1648531557480,-104.96
1648531557496,-195.59
1648531557512,-272.7
1648531557527,-326.91
1648531557543,-353.46
1648531557559,-353.4
1648531557574,-332.3
1648531557590,-297.7
1648531557605,-256.39
1648531557621,-212.89
1648531557637,-169.62
1648531557652,-127.98
1648531557668,-89.61
1648531557684,-56.67
1648531557699,-31.47
1648531557715,-15.4
1648531557730,-8.44
1648531557746,-9.13
1648531557762,-15.17
1648531557777,-24.13
1648531557793,-33.96
1648531557809,-43.29
1648531557824,-51.29
1648531557840,-57.6
1648531557855,-62.14
1648531557871,-65.11
1648531557887,-66.94
1648531557902,-68.23
1648531557918,-69.61
1648531557934,-71.45
1648531557949,-73.74
1648531557965,-76.01
1648531557980,-77.65
1648531557996,-78.2
1648531558012,-77.65
1648531558027,-76.4
1648531558043,-74.9
1648531558059,-73.24
1648531558074,-70.81
1648531558090,-66.55
1648531558105,-59.5
1648531558121,-49.43
1648531558137,-37.11
1648531558152,-23.99
1648531558168,-11.46
1648531558184,-0.2
1648531558199,10.28
1648531558215,21.53
1648531558230,35.84
1648531558246,55.73
1648531558262,83.48
1648531558277,120.43
1648531558293,166.06
1648531558309,217.02
1648531558324,267.06
1648531558340,308.29
1648531558355,333.53
1648531558371,338.93
1648531558387,325.25
1648531558402,297.19
1648531558418,261.02
1648531558434,221.69
1648531558449,181.23
1648531558465,139.01
1648531558480,93.73
1648531558496,45.86
1648531558512,-0.84
1648531558527,-39.51
1648531558543,-62.7
1648531558559,-65.47
1648531558574,-48.27
1648531558590,-18.0
1648531558605,13.51
1648531558621,33.29
1648531558637,31.32
1648531558652,3.61
1648531558668,-46.93
1648531558684,-112.05
1648531558699,-180.78
1648531558715,-242.06
1648531558730,-286.71
1648531558746,-308.69
1648531558762,-306.12
1648531558777,-281.82
1648531558793,-242.85
1648531558809,-198.34
1648531558824,-156.39
1648531558840,-121.01
1648531558855,-91.09
1648531558871,-62.1
1648531558887,-29.46
1648531558902,8.44
1648531558918,49.35
1648531558934,88.47
1648531558949,121.52
1648531558965,146.73
1648531558980,165.06
1648531558996,178.49
1648531559012,188.04
1648531559027,192.98
1648531559043,191.35
1648531559059,181.69
1648531559074,163.8
1648531559090,139.85
1648531559105,113.47
1648531559121,88.47
1648531559137,67.12
1648531559152,49.38
1648531559168,33.42
1648531559184,16.83
1648531559199,-1.96
1648531559215,-24.02
1648531559230,-48.5
1648531559246,-73.11
1648531559262,-95.26
1648531559277,-113.65
1648531559293,-129.14
1648531559309,-144.33
1648531559324,-162.09
1648531559340,-183.91
1648531559355,-210.98
1648531559371,-241.88
1648531559387,-273.04
1648531559402,-299.99
1648531559418,-319.24
1648531559434,-329.88
1648531559449,-333.56
1648531559465,-333.48
1648531559480,-332.97
1648531559496,-337.08
1648531559512,-348.76
1648531559527,-368.04
1648531559543,-391.88
1648531559559,-415.58
1648531559574,-434.85
1648531559590,-446.69
1648531559605,-449.9
1648531559621,-427.27
1648531559637,-369.03
1648531559652,-274.47
1648531559668,-153.87
1648531559684,-23.71
1648531559699,100.42
1648531559715,208.01
1648531559730,294.42
1648531559746,358.53
1648531559762,401.08
1648531559777,421.38
1648531559793,421.23
1648531559809,406.83
1648531559824,387.19
1648531559840,371.05
1648531559855,363.95
1648531559871,367.48
1648531559887,379.14
1648531559902,393.82
1648531559918,404.15
1648531559934,405.26
1648531559949,392.24
1648531559965,367.12
1648531559980,339.65
1648531559996,315.75
1648531560012,297.93
1648531560027,286.19
1648531560043,279.44
1648531560059,274.71
1648531560074,270.77
1648531560090,267.88
1648531560105,267.92
1648531560121,272.34
1648531560137,280.29
1648531560152,289.31
1648531560168,295.89
1648531560184,296.99
1648531560199,290.89
1648531560215,278.33
1648531560230,261.59
1648531560246,243.24
1648531560262,223.9
1648531560277,201.43
1648531560293,172.89
1648531560309,136.24
1648531560324,91.43
1648531560340,40.38
1648531560355,-13.37
1648531560371,-65.75
1648531560387,-112.82
1648531560402,-152.13
1648531560418,-183.66
1648531560434,-209.75
1648531560449,-234.35
1648531560465,-261.22
1648531560480,-291.57
1648531560496,-322.17
1648531560512,-346.32
1648531560527,-356.83
1648531560543,-350.49
1648531560559,-330.93
1648531560574,-307.9
1648531560590,-293.28
1648531560605,-295.83
1648531560621,-317.18
1648531560637,-351.16
1648531560652,-386.66
1648531560668,-412.06
1648531560684,-419.57
1648531560699,-406.81
1648531560715,-375.85
1648531560730,-330.54
1648531560746,-273.93
1648531560762,-207.35
1648531560777,-132.16
1648531560793,-51.73
1648531560809,27.23
1648531560824,95.58
1648531560840,144.86
1648531560855,170.4
1648531560871,172.56
1648531560887,155.43
1648531560902,124.13
1648531560918,82.91
1648531560934,34.9
1648531560949,-16.2
1648531560965,-64.39
1648531560980,-101.51
1648531560996,-119.81
1648531561012,-115.22
1648531561027,-89.51
1648531561043,-49.63
1648531561059,-4.96
1648531561074,36.24
1648531561090,68.99
1648531561105,91.68
1648531561121,105.08
1648531561137,110.7
1648531561152,110.04
1648531561168,104.65
1648531561184,96.22
1648531561199,86.89
1648531561215,78.81
1648531561230,73.7
1648531561246,72.24
1648531561262,74.37
1648531561277,79.3
1648531561293,86.06
1648531561309,94.12
1648531561324,103.1
1648531561340,112.51
1648531561355,121.26
1648531561371,127.64
1648531561387,129.43
1648531561402,124.56
1648531561418,111.91
1648531561434,91.91
1648531561449,66.48
1648531561465,38.66
1648531561480,11.88
1648531561496,-10.92
1648531561512,-28.04
1648531561527,-39.37
1648531561543,-46.29
1648531561559,-50.99
1648531561574,-55.7
1648531561590,-62.01
1648531561605,-70.51
1648531561621,-80.86
1648531561637,-92.19
1648531561652,-103.52
1648531561668,-114.06
1648531561684,-123.19
1648531561699,-130.45
1648531561715,-135.38
1648531561730,-137.54
1648531561746,-136.56
1648531561762,-132.11
1648531561777,-123.94
1648531561793,-112.11
1648531561809,-96.9
1648531561824,-78.82
1648531561840,-58.58
1648531561855,-36.89
1648531561871,-14.4
1648531561887,8.2
1648531561902,30.18
1648531561918,50.56
1648531561934,68.3
1648531561949,82.4
1648531561965,92.24
1648531561980,97.64
1648531561996,98.79
1648531562012,96.24
1648531562027,90.71
1648531562043,83.1
1648531562059,74.5
1648531562074,66.02
1648531562090,58.58
1648531562105,52.81
1648531562121,48.88
1648531562137,46.68
1648531562152,46.13
1648531562168,47.36
1648531562184,50.9
1648531562199,57.57
1648531562215,68.08
1648531562230,82.72
1648531562246,101.23
1648531562262,122.69
1648531562277,145.77
1648531562293,168.81
1648531562309,190.2
1648531562324,208.71
1648531562340,223.9
1648531562355,236.25
1648531562371,246.82
1648531562387,256.3
1648531562402,263.95
1648531562418,267.15
1648531562434,261.71
1648531562449,243.45
1648531562465,210.0
1648531562480,162.26
1648531562496,104.64
1648531562512,43.94
1648531562527,-12.48
1648531562543,-58.65
1648531562559,-91.26
1648531562574,-110.31
1648531562590,-119.13
1648531562605,-123.52
1648531562621,-129.94
1648531562637,-143.12
1648531562652,-163.75
1648531562668,-187.41
1648531562684,-205.78
1648531562699,-209.55
1648531562715,-192.27
1648531562730,-153.14
1648531562746,-97.76
1648531562762,-36.35
1648531562777,19.42
1648531562793,59.82
1648531562809,79.42
1648531562824,77.74
1648531562840,58.49
1648531562855,27.84
1648531562871,-7.59
1648531562887,-42.33
1648531562902,-72.88
1648531562918,-97.61
1648531562934,-116.08
1648531562949,-128.33
1648531562965,-134.71
1648531562980,-136.15
1648531562996,-134.36
1648531563012,-131.68
1648531563027,-130.33
1648531563043,-131.51
1648531563059,-134.78
1648531563074,-138.13
1648531563090,-138.93
1648531563105,-135.19
1648531563121,-126.15
1648531563137,-112.34
1648531563152,-94.94
1648531563168,-75.16
1648531563184,-54.0
1648531563199,-32.52
1648531563215,-12.21
1648531563230,4.97
1648531563246,17.15
1648531563262,23.44
1648531563277,24.47
1648531563293,22.22
1648531563309,19.08
1648531563324,16.76
1648531563340,15.7
1648531563355,15.31
1648531563371,14.84
1648531563387,14.11
1648531563402,13.61
1648531563418,13.66
1648531563434,13.58
1648531563449,11.33
1648531563465,4.27
1648531563480,-9.51
1648531563496,-29.87
1648531563512,-54.14
1648531563527,-77.49
1648531563543,-94.13
1648531563559,-98.86
1648531563574,-88.44
1648531563590,-62.67
1648531563605,-25.08
1648531563621,17.46
1648531563637,56.04
1648531563652,82.14
1648531563668,90.57
1648531563684,81.29
1648531563699,59.65
1648531563715,34.08
1648531563730,12.68
1648531563746,0.3
1648531563762,-2.48
1648531563777,1.53
1648531563793,8.05
1648531563809,13.24
1648531563824,14.71
1648531563840,11.84
1648531563855,5.92
1648531563871,0.1
1648531563887,-0.75
1648531563902,8.83
1648531563918,32.97
1648531563934,72.32
1648531563949,122.8
1648531563965,176.14
1648531563980,222.14
1648531563996,251.83
1648531564012,259.92
1648531564027,245.81
1648531564043,213.08
1648531564059,167.91
1648531564074,117.52
1648531564090,68.72
1648531564105,26.66
1648531564121,-5.54
1648531564137,-27.02
1648531564152,-38.77
1648531564168,-42.94
1648531564184,-42.73
1648531564199,-42.06
1648531564215,-45.49
1648531564230,-57.25
1648531564246,-79.47
1648531564262,-110.76
1648531564277,-145.91
1648531564293,-178.12
1648531564309,-202.35
1648531564324,-218.15
1648531564340,-229.87
1648531564355,-243.83
1648531564371,-264.14
1648531564387,-289.84
1648531564402,-315.3
1648531564418,-333.78
1648531564434,-341.63
1648531564449,-340.18
1648531564465,-334.18
1648531564480,-327.7
1648531564496,-320.39
1648531564512,-306.78
1648531564527,-279.12
1648531564543,-232.09
1648531564559,-166.67
1648531564574,-90.83
1648531564590,-17.02
1648531564605,42.13
1648531564621,78.41
1648531564637,90.74
1648531564652,85.13
1648531564668,72.26
1648531564684,64.08
1648531564699,70.16
1648531564715,95.17
1648531564730,137.97
1648531564746,192.55
1648531564762,249.66
1648531564777,299.24
1648531564793,332.67
1648531564809,344.9
1648531564824,336.01
1648531564840,311.47
1648531564855,280.9
1648531564871,254.73
1648531564887,240.15
1648531564902,237.85
1648531564918,241.43
1648531564934,240.03
1648531564949,223.62
1648531564965,187.95
1648531564980,136.83
1648531564996,80.65
1648531565012,32.06
1648531565027,0.88
1648531565043,-8.96
1648531565059,0.42
1648531565074,22.94
1648531565090,51.62
1648531565105,80.78
1648531565121,106.93
1648531565137,128.62
1648531565152,145.83
1648531565168,159.01
1648531565184,168.53
1648531565199,174.24
1648531565215,175.15
1648531565230,169.93
1648531565246,158.05
1648531565262,140.65
1648531565277,120.81
1648531565293,102.55
1648531565309,88.69
1648531565324,79.24
1648531565340,71.24
1648531565355,60.38
1648531565371,43.63
1648531565387,21.26
1648531565402,-3.46
1648531565418,-25.98
1648531565434,-42.77
1648531565449,-52.52
1648531565465,-55.89
1648531565480,-54.32
1648531565496,-49.65
1648531565512,-44.34
1648531565527,-42.14
1648531565543,-47.75
1648531565559,-65.32
1648531565574,-96.34
1648531565590,-138.34
1648531565605,-185.31
1648531565621,-229.65
1648531565637,-264.93
1648531565652,-287.35
1648531565668,-296.01
1648531565684,-292.03
1648531565699,-277.28
1648531565715,-253.75
1648531565730,-223.53
1648531565746,-189.02
1648531565762,-153.23
1648531565777,-120.08
1648531565793,-94.48
1648531565809,-81.83
1648531565824,-86.52
1648531565840,-109.4
1648531565855,-146.14
1648531565871,-187.36
1648531565887,-221.27
1648531565902,-237.91
1648531565918,-232.85
1648531565934,-208.02
1648531565949,-169.8
1648531565965,-125.29
1648531565980,-79.32
1648531565996,-33.85
1648531566012,10.44
1648531566027,51.73
1648531566043,86.13
1648531566059,108.73
1648531566074,116.19
1648531566090,108.71
1648531566105,90.39
1648531566121,67.63
1648531566137,46.46
1648531566152,30.61
1648531566168,20.99
1648531566184,16.41
1648531566199,15.02
1648531566215,15.48
1648531566230,17.38
1648531566246,20.98
1648531566262,26.65
1648531566277,34.18
1648531566293,42.36
1648531566309,49.01
1648531566324,51.69
1648531566340,48.79
1648531566355,40.6
1648531566371,29.66
1648531566387,20.04
1648531566402,15.9
1648531566418,19.59
1648531566434,30.61
1648531566449,45.76
1648531566465,60.79
1648531566480,72.48
1648531566496,80.12
1648531566512,85.57
1648531566527,91.9
1648531566543,101.39
1648531566559,114.06
1648531566574,127.64
1648531566590,138.63
1648531566605,144.3
1648531566621,144.06
1648531566637,139.71
1648531566652,134.44
1648531566668,131.18
1648531566684,131.25
1648531566699,133.98
1648531566715,137.38
1648531566730,139.14
1648531566746,137.98
1648531566762,134.22
1648531566777,129.95
1648531566793,128.59
1648531566809,133.81
1648531566824,148.16
1648531566840,171.87
1648531566855,202.3
1648531566871,234.3
1648531566887,261.5
1648531566902,277.95
1648531566918,279.6
1648531566934,265.31
1648531566949,236.7
1648531566965,197.68
1648531566980,153.66
1648531566996,110.51
1648531567012,72.79
1648531567027,42.12
1648531567043,16.19
1648531567059,-10.64
1648531567074,-44.32
1648531567090,-88.07
1648531567105,-140.74
1648531567121,-197.59
1648531567137,-252.98
1648531567152,-303.59
1648531567168,-349.39
1648531567184,-391.96
1648531567199,-431.22
1648531567215,-462.01
1648531567230,-475.01
1648531567246,-460.93
1648531567262,-415.43
1648531567277,-342.18
1648531567293,-252.72
1648531567309,-162.77
1648531567324,-87.13
1648531567340,-36.08
1648531567355,-12.4
1648531567371,-13.0
1648531567387,-31.35
1648531567402,-59.26
1648531567418,-87.43
1648531567434,-106.46
1648531567449,-108.58
1648531567465,-89.95
1648531567480,-52.88
1648531567496,-4.1
1648531567512,46.44
1648531567527,88.51
1648531567543,111.2
1648531567559,108.57
1648531567574,82.4
1648531567590,41.53
1648531567605,1.92
1648531567621,-29.6
1648531567637,-52.03
1648531567652,-67.11
1648531567668,-77.86
1648531567684,-85.12
1648531567699,-87.38
1648531567715,-81.5
1648531567730,-63.92
1648531567746,-32.33
1648531567762,12.48
1648531567777,67.2
1648531567793,124.77
1648531567809,174.43
1648531567824,204.01
1648531567840,204.0
1648531567855,171.71
1648531567871,113.44
1648531567887,43.39
1648531567902,-20.81
1648531567918,-62.57
1648531567934,-71.91
1648531567949,-48.42
1648531567965,-0.23
1648531567980,59.81
1648531567996,118.91
1648531568012,167.94
1648531568027,203.09
1648531568043,225.06
1648531568059,237.82
1648531568074,245.46
1648531568090,249.62
1648531568105,248.43
1648531568121,237.52
1648531568137,212.46
1648531568152,171.35
1648531568168,116.39
1648531568184,53.52
1648531568199,-9.27
1648531568215,-64.86
1648531568231,-108.9
1648531568246,-140.26
1648531568262,-159.78
1648531568277,-168.82
1648531568293,-168.59
1648531568309,-160.24
1648531568324,-145.75
1648531568340,-128.22
1648531568356,-111.38
1648531568371,-98.28
1648531568387,-90.02
1648531568402,-85.27
1648531568418,-81.2
1648531568434,-75.41
1648531568449,-67.53
1648531568465,-59.43
1648531568481,-53.91
1648531568496,-52.69
1648531568512,-55.11
1648531568527,-58.25
1648531568543,-58.39
1648531568559,-52.77
1648531568574,-40.78
1648531568590,-23.81
1648531568606,-4.6
1648531568621,13.61
1648531568637,27.5
1648531568652,34.05
1648531568668,31.29
1648531568684,19.21
1648531568699,0.57
1648531568715,-19.37
1648531568731,-34.37
1648531568746,-39.54
1648531568762,-33.09
1648531568777,-16.33
1648531568793,7.47
1648531568809,34.63
1648531568824,61.73
1648531568840,85.48
1648531568856,102.48
1648531568871,109.63
1648531568887,105.4
1648531568902,91.1
1648531568918,71.07
1648531568934,51.32
1648531568949,37.22
1648531568965,31.41
1648531568981,33.17
1648531568996,39.3
1648531569012,45.75
1648531569027,49.09
1648531569043,47.27
1648531569059,39.72
1648531569074,27.16
1648531569090,11.63
1648531569106,-3.73
1648531569121,-15.12
1648531569137,-19.18
1648531569152,-14.33
1648531569168,-1.5
1648531569184,16.0
1648531569199,33.73
1648531569215,47.6
1648531569231,55.13
1648531569246,55.98
1648531569262,51.66
1648531569277,44.99
1648531569293,39.58
1648531569309,39.21
1648531569324,46.98
1648531569340,64.14
1648531569356,88.91
1648531569371,116.32
1648531569387,139.3
1648531569402,151.23
1648531569418,148.63
1648531569434,132.84
1648531569449,109.33
1648531569465,85.19
1648531569481,66.03
1648531569496,53.95
1648531569512,47.73
1648531569527,44.54
1648531569543,41.71
1648531569559,37.57
1648531569574,30.81
1648531569590,19.48
1648531569606,0.74
1648531569621,-27.94
1648531569637,-66.89
1648531569652,-112.8
1648531569668,-158.91
1648531569684,-197.1
1648531569699,-220.74
1648531569715,-226.9
1648531569731,-217.16
1648531569746,-196.33
1648531569762,-170.22
1648531569777,-143.43
1648531569793,-118.15
1648531569809,-94.0
1648531569824,-69.07
1648531569840,-41.42
1648531569856,-10.63
1648531569871,21.32
1648531569887,50.01
1648531569902,69.76
1648531569918,75.34
1648531569934,63.52
1648531569949,33.76
1648531569965,-12.13
1648531569981,-70.58
1648531569996,-136.69
1648531570012,-204.22
1648531570027,-265.72
1648531570043,-313.29
1648531570059,-340.33
1648531570074,-343.46
1648531570090,-323.95
1648531570106,-287.41
1648531570121,-241.86
1648531570137,-195.03
1648531570152,-152.16
1648531570168,-115.25
1648531570184,-83.79
1648531570199,-56.1
1648531570215,-30.28
1648531570231,-4.55
1648531570246,22.94
1648531570262,54.31
1648531570277,91.53
1648531570293,135.09
1648531570309,182.9
1648531570324,229.92
1648531570340,269.17
1648531570356,293.82
1648531570371,299.82
1648531570387,287.63
1648531570402,262.26
1648531570418,231.64
1648531570434,203.79
1648531570449,184.27
1648531570465,174.73
1648531570481,172.95
1648531570496,174.3
1648531570512,173.84
1648531570527,168.3
1648531570543,157.2
1648531570559,142.87
1648531570574,129.25
1648531570590,120.27
1648531570606,118.34
1648531570621,123.72
1648531570637,134.95
1648531570652,149.96
1648531570668,166.91
1648531570684,184.33
1648531570699,200.52
1648531570715,213.11
1648531570731,219.28
1648531570746,216.69
1648531570762,204.66
1648531570777,184.85
1648531570793,160.89
1648531570809,136.95
1648531570824,116.24
1648531570840,100.04
1648531570856,87.66
1648531570871,77.15
1648531570887,66.19
1648531570902,52.72
1648531570918,35.24
1648531570934,12.88
1648531570949,-14.33
1648531570965,-45.02
1648531570981,-76.32
1648531570996,-104.21
1648531571012,-124.48
1648531571027,-134.12
1648531571043,-132.42
1648531571059,-121.16
1648531571074,-103.92
1648531571090,-84.81
1648531571106,-67.22
1648531571121,-53.23
1648531571137,-43.77
1648531571152,-39.13
1648531571168,-39.47
1648531571184,-44.85
1648531571199,-54.89
1648531571215,-68.58
1648531571231,-84.25
1648531571246,-100.08
1648531571262,-114.61
1648531571277,-127.16
1648531571293,-137.79
1648531571309,-147.04
1648531571324,-155.49
1648531571340,-163.53
1648531571356,-171.47
1648531571371,-179.72
1648531571387,-189.08
1648531571402,-200.65
1648531571418,-215.61
1648531571434,-234.64
1648531571449,-257.71
1648531571465,-283.85
1648531571481,-311.36
1648531571496,-338.17
1648531571512,-362.14
1648531571527,-381.23
1648531571543,-393.6
1648531571559,-397.55
1648531571574,-391.56
1648531571590,-374.51
1648531571606,-346.0
1648531571621,-306.67
1648531571637,-258.48
1648531571652,-204.53
1648531571668,-148.63
1648531571684,-94.56
1648531571699,-45.39
1648531571715,-2.91
1648531571731,32.33
1648531571746,60.76
1648531571762,83.29
1648531571777,100.84
1648531571793,114.06
1648531571809,123.39
1648531571824,129.22
1648531571840,132.0
1648531571856,132.33
1648531571871,130.85
1648531571887,128.19
1648531571902,125.0
1648531571918,121.98
1648531571934,120.05
1648531571949,120.25
1648531571965,123.53
1648531571981,130.35
1648531571996,140.45
1648531572012,152.81
1648531572027,166.03
1648531572043,178.76
1648531572059,189.98
1648531572074,199.15
1648531572090,205.92
1648531572106,209.97
1648531572121,210.85
1648531572137,208.09
1648531572152,201.45
1648531572168,191.17
1648531572184,178.13
1648531572199,163.67
1648531572215,149.4
1648531572231,136.73
1648531572246,126.56
1648531572262,119.11
1648531572277,113.91
1648531572293,110.05
1648531572309,106.53
1648531572324,102.59
1648531572340,97.81
1648531572356,92.12
1648531572371,85.48
1648531572387,77.82
1648531572402,68.95
1648531572418,58.79
1648531572434,47.59
1648531572449,35.99
1648531572465,24.99
1648531572481,15.64
1648531572496,8.57
1648531572512,3.69
1648531572527,0.19
1648531572543,-3.2
1648531572559,-7.55
1648531572574,-13.27
1648531572590,-19.89
1648531572606,-26.27
1648531572621,-31.15
1648531572637,-33.78
1648531572652,-34.25
1648531572668,-33.45
1648531572684,-32.76
1648531572699,-33.58
1648531572715,-36.97
1648531572731,-43.29
1648531572746,-52.15
1648531572762,-62.32
1648531572777,-71.81
1648531572793,-78.32
1648531572809,-79.87
1648531572824,-75.49
1648531572840,-65.76
1648531572856,-52.68
1648531572871,-39.03
1648531572887,-27.37
1648531572902,-19.26
1648531572918,-14.86
1648531572934,-13.37
1648531572949,-13.84
1648531572965,-15.69
1648531572981,-19.18
1648531572996,-25.0
1648531573012,-33.82
1648531573027,-45.71
1648531573043,-59.62
1648531573059,-73.06
1648531573074,-82.12
1648531573090,-82.13
1648531573106,-69.17
1648531573121,-41.97
1648531573137,-3.2
1648531573152,40.65
1648531573168,81.13
1648531573184,110.64
1648531573199,124.75
1648531573215,123.2
1648531573231,109.25
1648531573246,87.85
1648531573262,64.22
1648531573277,43.15
1648531573293,28.9
1648531573309,24.74
1648531573324,31.95
1648531573340,48.56
1648531573356,68.98
1648531573371,85.59
1648531573387,91.03
1648531573402,80.88
1648531573418,55.05
1648531573434,17.32
1648531573449,-26.42
1648531573465,-69.9
1648531573481,-107.88
1648531573496,-136.6
1648531573512,-153.36
1648531573527,-157.04
1648531573543,-148.23
1648531573559,-129.32
1648531573574,-104.35
1648531573590,-78.03
1648531573606,-54.36
1648531573621,-35.66
1648531573637,-22.79
1648531573652,-14.47
1648531573668,-9.78
1648531573684,-8.63
1648531573699,-12.07
1648531573715,-21.66
1648531573731,-38.27
1648531573746,-61.21
1648531573762,-88.06
1648531573777,-116.48
1648531573793,-142.63
1648531573809,-165.32
1648531573824,-185.18
1648531573840,-203.61
1648531573856,-221.35
1648531573871,-237.53
1648531573887,-250.02
1648531573902,-257.0
1648531573918,-260.1
1648531573934,-260.14
1648531573949,-260.87
1648531573965,-264.91
1648531573981,-271.92
1648531573996,-278.29
1648531574012,-278.54
1648531574027,-268.33
1648531574043,-246.77
1648531574059,-218.9
1648531574074,-187.86
1648531574090,-158.61
1648531574106,-133.74
1648531574121,-113.14
1648531574137,-95.09
1648531574152,-77.88
1648531574168,-60.69
1648531574184,-30.4
1648531574199,-2.28
1648531574215,27.65
1648531574231,61.42
1648531574246,100.38
1648531574262,144.04
1648531574277,189.91
1648531574293,234.35
1648531574309,274.17
1648531574324,307.71
1648531574340,332.95
1648531574356,352.85
1648531574371,367.78
1648531574387,377.12
1648531574402,379.47
1648531574418,373.44
1648531574434,358.24
1648531574449,333.92
1648531574465,301.55
1648531574481,261.37
1648531574496,217.55
1648531574512,173.24
1648531574527,131.95
1648531574543,97.04
1648531574559,70.9
1648531574574,54.49
1648531574590,47.11
1648531574606,46.8
1648531574621,49.7
1648531574637,53.44
1648531574652,54.41
1648531574668,49.42
1648531574684,36.5
1648531574699,15.79
1648531574715,-10.21
1648531574731,-37.18
1648531574746,-60.31
1648531574762,-76.33
1648531574777,-83.02
1648531574793,-80.84
1648531574809,-71.72
1648531574824,-58.1
1648531574840,-42.31
1648531574856,-26.31
1648531574871,-11.85
1648531574887,-0.57
1648531574902,5.9
1648531574918,6.83
1648531574934,2.11
1648531574949,-7.47
1648531574965,-20.3
1648531574981,-34.4
1648531574996,-47.68
1648531575012,-58.29
1648531575027,-64.91
1648531575043,-66.84
1648531575059,-64.06
1648531575074,-57.14
1648531575090,-47.07
1648531575106,-35.24
1648531575121,-23.36
1648531575137,-13.12
1648531575152,-5.94
1648531575168,-2.39
1648531575184,-1.96
1648531575199,-3.03
1648531575215,-3.4
1648531575231,-1.38
1648531575246,3.18
1648531575262,8.23
1648531575277,9.89
1648531575293,3.71
1648531575309,-13.41
1648531575324,-41.67
1648531575340,-77.62
1648531575356,-114.99
1648531575371,-146.58
1648531575387,-166.51
1648531575402,-171.97
1648531575418,-163.56
1648531575434,-144.66
1648531575449,-119.79
1648531575465,-92.83
1648531575481,-65.95
1648531575496,-39.34
1648531575512,-11.83
1648531575527,18.11
1648531575543,51.22
1648531575559,86.87
1648531575574,122.84
1648531575590,155.79
1648531575606,182.05
1648531575621,198.5
1648531575637,203.47
1648531575652,197.21
1648531575668,182.12
1648531575684,162.1
1648531575699,141.68
1648531575715,124.66
1648531575731,112.86
1648531575746,105.63
1648531575762,100.05
1648531575777,92.27
1648531575793,79.19
1648531575809,59.8
1648531575824,35.51
1648531575840,9.37
1648531575856,-15.25
1648531575871,-36.05
1648531575887,-52.2
1648531575902,-64.0
1648531575918,-71.9
1648531575934,-75.83
1648531575949,-75.15
1648531575965,-69.25
1648531575981,-58.41
1648531575996,-43.97
1648531576012,-27.99
1648531576027,-12.52
1648531576043,0.56
1648531576059,9.4
1648531576074,11.85
1648531576090,5.8
1648531576106,-9.76
1648531576121,-33.36
1648531576137,-60.58
1648531576152,-85.1
1648531576168,-101.16
1648531576184,-106.18
1648531576199,-101.83
1648531576215,-92.84
1648531576231,-84.3
1648531576246,-78.95
1648531576262,-76.08
1648531576277,-72.63
1648531576293,-65.51
1648531576309,-53.35
1648531576324,-37.01
1648531576340,-18.59
1648531576356,-0.1
1648531576371,17.05
1648531576387,31.6
1648531576402,41.64
1648531576418,44.24
1648531576434,36.25
1648531576449,15.94
1648531576465,-15.53
1648531576481,-53.77
1648531576496,-92.19
1648531576512,-123.99
1648531576527,-144.19
1648531576543,-151.0
1648531576559,-146.27
1648531576574,-134.83
1648531576590,-122.81
1648531576606,-115.49
1648531576621,-115.08
1648531576637,-119.72
1648531576652,-124.21
1648531576668,-122.43
1648531576684,-110.68
1648531576699,-89.93
1648531576715,-65.71
1648531576731,-45.44
1648531576746,-34.62
1648531576762,-34.04
1648531576777,-39.48
1648531576793,-43.89
1648531576809,-40.69
1648531576824,-26.2
1648531576840,-0.28
1648531576856,34.74
1648531576871,75.67
1648531576887,119.41
1648531576902,163.16
1648531576918,204.0
1648531576934,238.72
1648531576949,264.29
1648531576965,278.8
1648531576981,282.23
1648531576996,276.63
1648531577012,265.47
1648531577027,252.38
1648531577043,240.02
1648531577059,229.35
1648531577074,219.76
1648531577090,209.64
1648531577106,197.41
1648531577121,182.18
1648531577137,164.12
1648531577152,144.15
1648531577168,123.43
1648531577184,102.97
1648531577199,83.48
1648531577215,65.61
1648531577231,50.11
1648531577246,37.98
1648531577262,30.08
1648531577277,26.84
1648531577293,27.86
1648531577309,31.97
1648531577324,37.59
1648531577340,43.21
1648531577356,47.7
1648531577371,50.47
1648531577387,51.26
1648531577402,50.04
1648531577418,46.91
1648531577434,42.11
1648531577449,36.16
1648531577465,29.95
1648531577481,24.6
1648531577496,21.09
1648531577512,19.94
1648531577527,20.82
1648531577543,22.54
1648531577559,23.32
1648531577574,21.37
1648531577590,15.56
1648531577606,5.79
1648531577621,-7.09
1648531577637,-21.69
1648531577652,-36.61
1648531577668,-50.77
1648531577684,-63.48
1648531577699,-74.32
1648531577715,-83.11
1648531577731,-89.97
1648531577746,-95.49
1648531577762,-100.66
1648531577777,-106.59
1648531577793,-113.94
1648531577809,-122.46
1648531577824,-130.79
1648531577840,-136.94
1648531577856,-139.0
1648531577871,-135.96
1648531577887,-128.19
1648531577902,-117.26
1648531577918,-105.33
1648531577934,-94.33
1648531577949,-85.37
1648531577965,-78.4
1648531577981,-72.44
1648531577996,-65.99
1648531578012,-57.79
1648531578027,-47.23
1648531578043,-34.64
1648531578059,-21.2
1648531578074,-8.72
1648531578090,0.81
1648531578106,5.69
1648531578121,4.94
1648531578137,-1.19
1648531578152,-10.97
1648531578168,-21.53
1648531578184,-29.75
1648531578199,-33.49
1648531578215,-32.67
1648531578231,-29.49
1648531578246,-27.46
1648531578262,-30.2
1648531578277,-39.96
1648531578293,-56.85
1648531578309,-79.0
1648531578324,-103.23
1648531578340,-125.86
1648531578356,-143.49
1648531578371,-153.87
1648531578387,-156.7
1648531578402,-154.02
1648531578418,-149.67
1648531578434,-147.71
1648531578449,-150.35
1648531578465,-156.62
1648531578481,-162.68
1648531578496,-163.89
1648531578512,-157.4
1648531578527,-143.77
1648531578543,-126.47
1648531578559,-109.79
1648531578574,-96.41
1648531578590,-86.23
1648531578606,-76.87
1648531578621,-65.59
1648531578637,-51.2
1648531578652,-34.69
1648531578668,-18.64
1648531578684,-5.6
1648531578699,3.44
1648531578715,9.63
1648531578731,15.66
1648531578746,24.68
1648531578762,38.8
1648531578777,58.22
1648531578793,81.32
1648531578809,105.45
1648531578824,128.11
1648531578840,147.84
1648531578856,164.47
1648531578871,178.59
1648531578887,190.95
1648531578902,202.01
1648531578918,212.12
1648531578934,221.72
1648531578949,231.56
1648531578965,242.25
1648531578981,253.92
1648531578996,265.84
1648531579012,276.59
1648531579027,284.66
1648531579043,289.07
1648531579059,289.69
1648531579074,287.14
1648531579090,282.46
1648531579106,276.72
1648531579121,270.84
1648531579137,265.46
1648531579152,260.9
1648531579168,256.88
1648531579184,252.43
1648531579199,246.02
1648531579215,236.07
1648531579231,221.58
1648531579246,202.41
1648531579262,179.26
1648531579277,153.05
1648531579293,124.19
1648531579309,92.09
1648531579324,54.86
1648531579340,9.35
1648531579356,-48.34
1648531579371,-121.67
1648531579387,-211.75
1648531579402,-315.47
1648531579418,-424.67
1648531579434,-527.39
1648531579449,-611.08
1648531579465,-666.91
1648531579481,-692.82
1648531579496,-693.81
1648531579512,-679.21
1648531579527,-658.2
1648531579543,-636.04
1648531579559,-612.76
1648531579574,-584.76
1648531579590,-548.17
1648531579606,-501.74
1648531579621,-447.81
1648531579637,-391.08
1648531579652,-336.36
1648531579668,-286.37
1648531579684,-240.96
1648531579699,-197.77
1648531579715,-153.51
1648531579731,-105.26
1648531579746,-51.6
1648531579762,6.84
1648531579777,66.95
1648531579793,122.99
1648531579809,167.0
1648531579824,190.02
1648531579840,184.62
1648531579856,147.73
1648531579871,83.0
1648531579887,1.22
1648531579902,-81.93
1648531579918,-150.42
1648531579934,-193.12
1648531579949,-207.33
1648531579965,-199.07
1648531579981,-179.59
1648531579996,-160.27
1648531580012,-147.93
1648531580027,-143.18
1648531580043,-142.02
1648531580059,-139.4
1648531580074,-132.56
1648531580090,-122.17
1648531580106,-111.04
1648531580121,-101.66
1648531580137,-94.3
1648531580152,-87.09
1648531580168,-77.74
1648531580184,-65.45
1648531580199,-51.69
1648531580215,-39.61
1648531580231,-32.04
1648531580246,-29.71
1648531580262,-30.75
1648531580277,-31.57
1648531580293,-28.5
1648531580309,-19.53
1648531580324,-4.97
1648531580340,12.75
1648531580356,30.36
1648531580371,45.23
1648531580387,56.38
1648531580402,64.76
1648531580418,72.6
1648531580434,82.38
1648531580449,95.79
1648531580465,113.08
1648531580481,133.23
1648531580496,154.41
1648531580512,174.92
1648531580527,193.77
1648531580543,210.93
1648531580559,227.15
1648531580574,243.48
1648531580590,260.77
1648531580606,279.43
1648531580621,299.53
1648531580637,320.97
1648531580652,343.6
1648531580668,367.02
1648531580684,390.16
1648531580699,411.11
1648531580715,427.34
1648531580731,436.35
1648531580746,436.57
1648531580762,427.96
1648531580777,411.98
1648531580793,390.88
1648531580809,366.88
1648531580824,341.43
1648531580840,315.25
1648531580856,288.7
1648531580871,262.42
1648531580887,237.7
1648531580902,216.36
1648531580918,200.18
1648531580934,190.19
1648531580949,186.04
1648531580965,185.86
1648531580981,186.68
1648531580996,185.2
1648531581012,178.84
1648531581027,166.43
1648531581043,148.48
1648531581059,126.74
1648531581074,103.47
1648531581090,80.71
1648531581106,59.77
1648531581121,41.07
1648531581137,24.28
1648531581152,8.69
1648531581168,-6.45
1648531581184,-21.61
1648531581199,-36.83
1648531581215,-51.73
1648531581231,-65.93
1648531581246,-79.28
1648531581262,-92.27
1648531581277,-106.18
1648531581293,-123.19
1648531581309,-146.01
1648531581324,-177.18
1648531581340,-217.77
1648531581356,-266.06
1648531581371,-316.84
1648531581387,-362.0
1648531581402,-392.66
1648531581418,-402.13
1648531581434,-388.48
1648531581449,-355.32
1648531581465,-310.31
1648531581481,-262.15
1648531581496,-217.54
1648531581512,-179.78
1648531581527,-149.11
1648531581543,-124.28
1648531581559,-103.86
1648531581574,-86.71
1648531581590,-71.57
1648531581606,-56.61
1648531581621,-39.57
1648531581637,-18.73
1648531581652,6.19
1648531581668,33.53
1648531581684,60.3
1648531581699,83.27
1648531581715,100.3
1648531581731,110.81
1648531581746,115.66
1648531581762,116.36
1648531581777,114.29
1648531581793,110.24
1648531581809,104.44
1648531581824,96.8
1648531581840,87.39
1648531581856,76.89
1648531581871,66.62
1648531581887,58.23
1648531581902,53.16
1648531581918,51.91
1648531581934,53.86
1648531581949,57.48
1648531581965,61.06
1648531581981,63.38
1648531581996,64.25
1648531582012,64.33
1648531582027,64.71
1648531582043,66.28
1648531582059,69.38
1648531582074,73.61
1648531582090,77.85
1648531582106,80.3
1648531582121,78.71
1648531582137,71.07
1648531582152,56.68
1648531582168,37.37
1648531582184,17.85
1648531582199,4.65
1648531582215,3.74
1648531582231,17.91
1648531582246,45.18
1648531582262,79.41
1648531582277,112.75
1648531582293,138.72
1648531582309,154.27
1648531582324,160.03
1648531582340,158.82
1648531582356,153.87
1648531582371,147.59
1648531582387,141.65
1648531582402,137.56
1648531582418,137.2
1648531582434,142.4
1648531582449,153.95
1648531582465,170.8
1648531582481,189.97
1648531582496,207.46
1648531582512,219.62
1648531582527,224.22
1648531582543,220.9
1648531582559,210.86
1648531582574,195.9
1648531582590,177.57
1648531582606,156.68
1648531582621,133.21
1648531582637,106.74
1648531582652,76.99
1648531582668,44.23
1648531582684,9.56
1648531582699,-25.28
1648531582715,-58.29
1648531582731,-87.64
1648531582746,-112.09
1648531582762,-131.18
1648531582777,-145.24
1648531582793,-155.07
1648531582809,-161.75
1648531582824,-166.44
1648531582840,-170.13
1648531582856,-173.49
1648531582871,-176.73
1648531582887,-179.44
1648531582902,-180.77
1648531582918,-179.72
1648531582934,-175.6
1648531582949,-168.45
1648531582965,-159.23
1648531582981,-149.38
1648531582996,-140.38
1648531583012,-133.17
1648531583027,-127.85
1648531583043,-123.92
1648531583059,-120.74
1648531583074,-117.89
1648531583090,-115.37
1648531583106,-113.4
1648531583121,-112.11
1648531583137,-111.31
1648531583152,-110.5
1648531583168,-109.09
1648531583184,-106.72
1648531583199,-103.31
1648531583215,-99.06
1648531583231,-94.24
1648531583246,-89.09
1648531583262,-83.69
1648531583277,-78.04
1648531583293,-72.12
1648531583309,-65.92
1648531583324,-59.43
1648531583340,-52.59
1648531583356,-45.27
1648531583371,-37.17
1648531583387,-28.02
1648531583402,-17.57
1648531583418,-5.79
1648531583434,7.11
1648531583449,20.8
1648531583465,34.95
1648531583481,49.42
1648531583496,64.28
1648531583512,79.72
1648531583527,95.81
1648531583543,112.13
1648531583559,127.7
1648531583574,141.07
1648531583590,150.63
1648531583606,155.11
1648531583621,154.01
1648531583637,147.65
1648531583652,137.09
1648531583668,123.62
1648531583684,108.41
1648531583699,92.14
1648531583715,74.93
1648531583731,56.55
1648531583746,36.71
1648531583762,15.3
1648531583777,-7.48
1648531583793,-31.16
1648531583809,-55.09
1648531583824,-78.47
1648531583840,-100.45
1648531583856,-120.18
1648531583871,-136.88
1648531583887,-150.03
1648531583902,-159.45
1648531583918,-165.25
1648531583934,-167.62
1648531583949,-166.67
1648531583965,-162.36
1648531583981,-154.5
1648531583996,-142.91
1648531584012,-127.54
1648531584027,-108.59
1648531584043,-86.61
1648531584059,-62.45
1648531584074,-37.35
1648531584090,-12.77
1648531584106,9.85
1648531584121,29.34
1648531584137,45.14
1648531584152,57.29
1648531584168,66.26
1648531584184,72.59
1648531584199,76.62
1648531584215,78.46
1648531584231,77.9
1648531584246,74.71
1648531584262,68.68
1648531584277,59.78
1648531584293,48.32
1648531584309,35.12
1648531584324,21.54
1648531584340,9.33
1648531584356,0.19
1648531584371,-4.8
1648531584387,-5.6
1648531584403,-3.31
1648531584418,0.17
1648531584434,2.77
1648531584449,2.93
1648531584465,-0.0
1648531584481,-5.8
1648531584496,-13.59
1648531584512,-22.35
1648531584528,-31.2
1648531584543,-39.67
1648531584559,-47.72
1648531584574,-55.53
1648531584590,-63.35
1648531584606,-71.32
1648531584621,-79.29
1648531584637,-86.86
1648531584653,-93.49
1648531584668,-98.52
1648531584684,-101.45
1648531584699,-101.99
1648531584715,-100.15
1648531584731,-96.33
1648531584746,-91.34
1648531584762,-86.26
1648531584778,-82.1
1648531584793,-79.38
1648531584809,-77.62
1648531584824,-75.25
1648531584840,-69.85
1648531584856,-58.86
1648531584871,-40.5
1648531584887,-14.54
1648531584903,17.53
1648531584918,52.8
1648531584934,87.9
1648531584949,119.82
1648531584965,146.57
1648531584981,167.25
1648531584996,181.69
1648531585012,190.05
1648531585028,192.58
1648531585043,189.64
1648531585059,181.92
1648531585074,170.54
1648531585090,156.9
1648531585106,142.32
1648531585121,127.72
1648531585137,113.36
1648531585153,99.01
1648531585168,84.23
1648531585184,68.76
1648531585199,52.73
1648531585215,36.66
1648531585231,21.22
1648531585246,6.99
1648531585262,-5.85
1648531585278,-17.57
1648531585293,-28.84
1648531585309,-40.3
1648531585324,-52.2
1648531585340,-64.0
1648531585356,-74.5
1648531585371,-82.19
1648531585387,-85.98
1648531585403,-85.74
1648531585418,-82.39
1648531585434,-77.59
1648531585449,-73.03
1648531585465,-69.88
1648531585481,-68.49
1648531585496,-68.57
1648531585512,-69.53
1648531585528,-70.84
1648531585543,-72.14
1648531585559,-73.2
1648531585574,-73.84
1648531585590,-73.86
1648531585606,-73.06
1648531585621,-71.21
1648531585637,-68.05
1648531585653,-63.13
1648531585668,-55.88
1648531585684,-45.73
1648531585699,-32.38
1648531585715,-16.02
1648531585731,2.59
1648531585746,22.23
1648531585762,41.5
1648531585778,58.98
1648531585793,73.38
1648531585809,83.69
1648531585824,89.27
1648531585840,90.11
1648531585856,86.96
1648531585871,81.25
1648531585887,74.72
1648531585903,68.96
1648531585918,64.88
1648531585934,62.53
1648531585949,61.35
1648531585965,60.52
1648531585981,59.4
1648531585996,57.64
1648531586012,55.1
1648531586028,51.59
1648531586043,46.84
1648531586059,40.58
1648531586074,32.82
1648531586090,24.06
1648531586106,15.27
1648531586121,7.66
1648531586137,2.34
1648531586153,-0.01
1648531586168,0.68
1648531586184,4.05
1648531586199,9.48
1648531586215,16.46
1648531586231,24.66
1648531586246,33.95
1648531586262,44.06
1648531586278,54.39
1648531586293,63.82
1648531586309,70.8
1648531586324,73.66
1648531586340,71.15
1648531586356,62.9
1648531586371,49.72
1648531586387,33.47
1648531586403,16.61
1648531586418,1.49
1648531586434,-10.42
1648531586449,-18.81
1648531586465,-24.48
1648531586481,-28.81
1648531586496,-33.05
1648531586512,-37.91
1648531586528,-43.42
1648531586543,-49.29
1648531586559,-55.38
1648531586574,-62.0
1648531586590,-69.82
1648531586606,-79.55
1648531586621,-91.44
1648531586637,-105.04
1648531586653,-119.35
1648531586668,-133.22
1648531586684,-145.82
1648531586699,-156.93
1648531586715,-166.83
1648531586731,-175.93
1648531586746,-184.53
1648531586762,-192.61
1648531586778,-199.98
1648531586793,-206.45
1648531586809,-211.77
1648531586824,-215.55
1648531586840,-216.89
1648531586856,-214.48
1648531586871,-206.9
1648531586887,-193.3
1648531586903,-174.03
1648531586918,-150.94
1648531586934,-126.82
1648531586949,-104.49
1648531586965,-85.64
1648531586981,-70.15
1648531586996,-56.22
1648531587012,-41.14
1648531587028,-22.63
1648531587043,0.23
1648531587059,26.55
1648531587074,54.02
1648531587090,79.83
1648531587106,101.7
1648531587121,118.46
1648531587137,130.02
1648531587153,137.03
1648531587168,140.58
1648531587184,142.16
1648531587199,143.89
1648531587215,148.27
1648531587231,157.32
1648531587246,171.11
1648531587262,186.9
1648531587278,199.29
1648531587293,202.1
1648531587309,191.0
1648531587324,165.69
1648531587340,130.39
1648531587356,92.16
1648531587371,58.24
1648531587387,33.7
1648531587403,20.41
1648531587418,17.47
1648531587434,22.46
1648531587449,32.22
1648531587465,43.16
1648531587481,51.32
1648531587496,52.83
1648531587512,45.1
1648531587528,28.08
1648531587543,4.82
1648531587559,-19.17
1648531587574,-37.92
1648531587590,-46.95
1648531587606,-44.69
1648531587621,-32.4
1648531587637,-13.09
1648531587653,10.02
1648531587668,34.64
1648531587684,59.77
1648531587699,85.17
1648531587715,110.89
1648531587731,136.7
1648531587746,161.9
1648531587762,185.52
1648531587778,206.63
1648531587793,224.53
1648531587809,238.78
1648531587824,249.13
1648531587840,255.48
1648531587856,258.05
1648531587871,257.39
1648531587887,254.3
1648531587903,249.39
1648531587918,242.72
1648531587934,233.82
1648531587949,222.07
1648531587965,207.34
1648531587981,190.48
1648531587996,173.2
1648531588012,157.41
1648531588028,144.21
1648531588043,133.47
1648531588059,124.08
1648531588074,114.9
1648531588090,105.76
1648531588106,97.81
1648531588121,92.96
1648531588137,92.86
1648531588153,97.75
1648531588168,106.09
1648531588184,114.93
1648531588199,120.55
1648531588215,119.4
1648531588231,109.06
1648531588246,88.89
1648531588262,60.52
1648531588278,27.79
1648531588293,-4.01
1648531588309,-29.4
1648531588324,-44.21
1648531588340,-46.74
1648531588356,-38.04
1648531588371,-21.22
1648531588387,-0.23
1648531588403,21.19
1648531588418,40.15
1648531588434,54.64
1648531588449,63.47
1648531588465,66.17
1648531588481,63.26
1648531588496,56.22
1648531588512,47.05
1648531588528,37.44
1648531588543,27.85
1648531588559,17.24
1648531588574,3.72
1648531588590,-14.25
1648531588606,-36.59
1648531588621,-61.22
1648531588637,-84.72
1648531588653,-103.74
1648531588668,-116.51
1648531588684,-123.36
1648531588699,-126.25
1648531588715,-127.63
1648531588731,-129.33
1648531588746,-132.09
1648531588762,-135.9
1648531588778,-140.63
1648531588793,-146.37
1648531588809,-153.4
1648531588824,-161.67
1648531588840,-170.45
1648531588856,-178.21
1648531588871,-183.03
1648531588887,-182.99
1648531588903,-176.48
1648531588918,-162.46
1648531588934,-140.49
1648531588949,-111.15
1648531588965,-76.45
1648531588981,-40.25
1648531588996,-7.87
1648531589012,14.71
1648531589028,22.38
1648531589043,12.19
1648531589059,-15.71
1648531589074,-57.9
1648531589090,-108.23
1648531589106,-158.91
1648531589121,-202.17
1648531589137,-231.85
1648531589153,-244.84
1648531589168,-241.7
1648531589184,-226.15
1648531589199,-203.59
1648531589215,-178.95
1648531589231,-155.16
1648531589246,-132.57
1648531589262,-109.61
1648531589278,-84.37
1648531589293,-56.07
1648531589309,-25.74
1648531589324,4.25
1648531589340,31.09
1648531589356,52.53
1648531589371,67.19
1648531589387,74.47
1648531589403,74.45
1648531589418,67.73
1648531589434,55.65
1648531589449,40.39
1648531589465,24.68
1648531589481,11.12
1648531589496,1.18
1648531589512,-5.24
1648531589528,-9.74
1648531589543,-14.59
1648531589559,-21.88
1648531589574,-32.75
1648531589590,-47.39
1648531589606,-65.5
1648531589621,-86.67
1648531589637,-110.9
1648531589653,-138.61
1648531589668,-170.78
1648531589684,-208.49
1648531589699,-251.99
1648531589715,-299.29
1648531589731,-345.41
1648531589746,-382.99
1648531589762,-404.48
1648531589778,-405.17
1648531589793,-385.42
1648531589809,-350.92
1648531589824,-310.57
1648531589840,-273.08
1648531589856,-244.05
1648531589871,-224.82
1648531589887,-213.56
1648531589903,-207.25
1648531589918,-203.38
1648531589934,-200.52
1648531589949,-197.73
1648531589965,-193.74
1648531589981,-186.7
1648531589996,-174.82
1648531590012,-157.26
1648531590028,-134.73
1648531590043,-109.24
1648531590059,-83.45
1648531590074,-59.51
1648531590090,-38.36
1648531590106,-19.59
1648531590121,-1.89
1648531590137,16.07
1648531590153,34.97
1648531590168,54.42
1648531590184,73.21
1648531590199,89.87
1648531590215,103.35
1648531590231,113.45
1648531590246,121.05
1648531590262,127.87
1648531590278,135.91
1648531590293,146.72
1648531590309,160.62
1648531590324,176.33
1648531590340,191.18
1648531590356,201.92
1648531590371,205.82
1648531590387,201.72
1648531590403,190.4
1648531590418,174.21
1648531590434,156.11
1648531590449,138.65
1648531590465,123.39
1648531590481,110.96
1648531590496,101.41
1648531590512,94.7
1648531590528,90.76
1648531590543,89.43
1648531590559,90.29
1648531590574,92.69
1648531590590,96.04
1648531590606,100.01
1648531590621,104.54
1648531590637,109.56
1648531590653,114.67
1648531590668,119.08
1648531590684,121.65
1648531590699,121.3
1648531590715,117.4
1648531590731,110.02
1648531590746,100.11
1648531590762,89.28
1648531590778,79.45
1648531590793,72.48
1648531590809,69.52
1648531590824,70.61
1648531590840,74.51
1648531590856,79.14
1648531590871,82.34
1648531590887,82.67
1648531590903,80.04
1648531590918,75.63
1648531590934,71.2
1648531590949,68.28
1648531590965,67.47
1648531590981,68.19
1648531590996,69.1
1648531591012,68.6
1648531591028,65.5
1648531591043,59.21
1648531591059,49.85
1648531591074,38.07
1648531591090,24.86
1648531591106,11.47
1648531591121,-0.79
1648531591137,-10.85
1648531591153,-18.19
1648531591168,-23.07
1648531591184,-26.23
1648531591199,-28.18
1648531591215,-28.6
1648531591231,-25.99
1648531591246,-18.19
1648531591262,-3.52
1648531591278,18.0
1648531591293,43.99
1648531591309,70.18
1648531591324,91.77
1648531591340,104.97
1648531591356,107.93
1648531591371,100.85
1648531591387,85.43
1648531591403,64.18
1648531591418,39.97
1648531591434,15.79
1648531591449,-5.69
1648531591465,-22.61
1648531591481,-34.47
1648531591496,-42.29
1648531591512,-48.08
1648531591528,-53.8
1648531591543,-60.39
1648531591559,-67.48
1648531591574,-73.92
1648531591590,-78.77
1648531591606,-82.05
1648531591621,-84.67
1648531591637,-87.73
1648531591653,-91.64
1648531591668,-95.81
1648531591684,-99.15
1648531591699,-100.9
1648531591715,-101.18
1648531591731,-100.86
1648531591746,-100.76
1648531591762,-100.85
1648531591778,-99.9
1648531591793,-95.88
1648531591809,-86.87
1648531591824,-71.92
1648531591840,-51.3
1648531591856,-26.24
1648531591871,1.59
1648531591887,30.43
1648531591903,58.5
1648531591918,83.98
1648531591934,105.02
1648531591949,120.27
1648531591965,129.45
1648531591981,133.67
1648531591996,135.17
1648531592012,136.35
1648531592028,138.86
1648531592043,143.01
1648531592059,148.23
1648531592074,153.88
1648531592090,160.12
1648531592106,168.15
1648531592121,179.64
1648531592137,195.64
1648531592153,215.58
1648531592168,236.96
1648531592184,255.79
1648531592199,267.71
1648531592215,269.23
1648531592231,258.55
1648531592246,235.73
1648531592262,202.43
1648531592278,161.3
1648531592293,115.56
1648531592309,68.79
1648531592324,24.89
1648531592340,-12.0
1648531592356,-37.96
1648531592371,-50.31
1648531592387,-48.65
1648531592403,-35.33
1648531592418,-14.86
1648531592434,7.47
1648531592449,27.35
1648531592465,42.62
1648531592481,53.16
1648531592496,59.84
1648531592512,63.07
1648531592528,61.89
1648531592543,54.11
1648531592559,37.33
1648531592574,10.19
1648531592590,-26.79
1648531592606,-71.35
1648531592621,-120.08
1648531592637,-168.98
1648531592653,-213.58
1648531592668,-249.04
1648531592684,-270.52
1648531592699,-274.48
1648531592715,-260.27
1648531592731,-231.4
1648531592746,-195.39
1648531592762,-162.08
1648531592778,-140.86
1648531592793,-137.76
1648531592809,-153.75
1648531592824,-184.74
1648531592840,-222.94
1648531592856,-259.36
1648531592871,-286.22
1648531592887,-298.92
1648531592903,-296.7
1648531592918,-281.97
1648531592934,-258.58
1648531592949,-229.91
1648531592965,-197.47
1648531592981,-160.66
1648531592996,-117.85
1648531593012,-68.11
1648531593028,-12.75
1648531593043,44.2
1648531593059,96.9
1648531593074,139.34
1648531593090,167.23
1648531593106,179.32
1648531593121,177.68
1648531593137,166.72
1648531593153,151.77
1648531593168,137.38
1648531593184,126.22
1648531593199,119.08
1648531593215,115.6
1648531593231,115.17
1648531593246,117.42
1648531593262,121.8
1648531593278,126.77
1648531593293,129.56
1648531593309,126.61
1648531593324,114.92
1648531593340,93.44
1648531593356,63.61
1648531593371,28.98
1648531593387,-5.96
1648531593403,-37.1
1648531593418,-61.57
1648531593434,-77.82
1648531593449,-85.23
1648531593465,-83.78
1648531593481,-73.98
1648531593496,-56.97
1648531593512,-34.66
1648531593528,-9.45
1648531593543,16.15
1648531593559,40.06
1648531593574,61.02
1648531593590,78.55
1648531593606,92.68
1648531593621,103.52
1648531593637,110.88
1648531593653,114.27
1648531593668,113.21
1648531593684,107.71
1648531593699,98.75
1648531593715,88.31
1648531593731,79.01
1648531593746,73.38
1648531593762,73.09
1648531593778,78.38
1648531593793,87.91
1648531593809,98.91
1648531593824,107.51
1648531593840,109.34
1648531593856,100.41
1648531593871,78.28
1648531593887,43.14
1648531593903,-1.46
1648531593918,-49.08
1648531593934,-91.94
1648531593949,-123.07
1648531593965,-138.43
1648531593981,-137.8
1648531593996,-124.24
1648531594012,-102.51
1648531594028,-77.38
1648531594043,-52.49
1648531594059,-30.37
1648531594074,-13.04
1648531594090,-2.29
1648531594106,0.45
1648531594121,-5.26
1648531594137,-18.34
1648531594153,-36.06
1648531594168,-54.69
1648531594184,-70.4
1648531594199,-80.37
1648531594215,-83.3
1648531594231,-79.38
1648531594246,-69.73
1648531594262,-55.84
1648531594278,-39.15
1648531594293,-20.84
1648531594309,-1.93
1648531594324,16.63
1648531594340,33.9
1648531594356,49.07
1648531594371,61.74
1648531594387,71.9
1648531594403,79.78
1648531594418,85.37
1648531594434,87.93
1648531594449,85.88
1648531594465,77.09
1648531594481,59.73
1648531594496,33.18
1648531594512,-1.71
1648531594528,-42.74
1648531594543,-86.86
1648531594559,-130.73
1648531594574,-171.33
1648531594590,-206.22
1648531594606,-233.87
1648531594621,-253.86
1648531594637,-266.84
1648531594653,-274.23
1648531594668,-277.53
1648531594684,-277.58
1648531594699,-274.28
1648531594715,-266.83
1648531594731,-254.34
1648531594746,-236.49
1648531594762,-213.79
1648531594778,-187.41
1648531594793,-158.68
1648531594809,-128.74
1648531594824,-98.37
1648531594840,-68.29
1648531594856,-39.46
1648531594871,-13.22
1648531594887,8.98
1648531594903,25.91
1648531594918,37.02
1648531594934,42.7
1648531594949,44.25
1648531594965,43.68
1648531594981,43.23
1648531594996,44.78
1648531595012,49.31
1648531595028,56.63
1648531595043,65.5
1648531595059,74.25
1648531595074,81.57
1648531595090,87.26
1648531595106,92.25
1648531595121,98.07
1648531595137,105.87
1648531595153,115.52
1648531595168,125.36
1648531595184,132.72
1648531595199,134.91
1648531595215,130.37
1648531595231,119.34
1648531595246,103.63
1648531595262,85.91
1648531595278,68.67
1648531595293,53.4
1648531595309,40.52
1648531595324,29.72
1648531595340,20.67
1648531595356,13.47
1648531595371,8.59
1648531595387,6.41
1648531595403,6.58
1648531595418,7.76
1648531595434,7.85
1648531595449,4.88
1648531595465,-2.06
1648531595481,-12.25
1648531595496,-23.41
1648531595512,-32.59
1648531595528,-37.32
1648531595543,-36.53
1648531595559,-30.91
1648531595574,-22.52
1648531595590,-13.81
1648531595606,-6.7
1648531595621,-2.01
1648531595637,0.57
1648531595653,2.15
1648531595668,4.0
1648531595684,7.12
1648531595699,11.9
1648531595715,18.09
1648531595731,24.93
1648531595746,31.37
1648531595762,36.35
1648531595778,39.02
1648531595793,38.92
1648531595809,35.91
1648531595824,30.24
1648531595840,22.37
1648531595856,13.06
1648531595871,3.36
1648531595887,-5.39
1648531595903,-11.92
1648531595918,-15.4
1648531595934,-15.91
1648531595949,-14.62
1648531595965,-13.44
1648531595981,-14.44
1648531595996,-19.08
1648531596012,-27.65
1648531596028,-39.23
1648531596043,-52.07
1648531596059,-64.19
1648531596074,-74.01
1648531596090,-80.59
1648531596106,-83.46
1648531596121,-82.32
1648531596137,-76.95
1648531596153,-67.37
1648531596168,-54.21
1648531596184,-39.09
1648531596199,-24.45
1648531596215,-12.95
1648531596231,-6.51
1648531596246,-5.55
1648531596262,-8.67
1648531596278,-13.26
1648531596293,-16.53
1648531596309,-16.51
1648531596324,-12.68
1648531596340,-5.96
1648531596356,1.85
1648531596371,8.74
1648531596387,13.11
1648531596403,14.17
1648531596418,12.15
1648531596434,8.41
1648531596449,5.14
1648531596465,4.83
1648531596481,9.32
1648531596496,19.0
1648531596512,32.34
1648531596528,46.21
1648531596543,56.81
1648531596559,61.12
1648531596574,58.2
1648531596590,49.82
1648531596606,40.1
1648531596621,34.17
1648531596637,36.38
1648531596653,48.69
1648531596668,69.87
1648531596684,95.9
1648531596699,121.31
1648531596715,140.93
1648531596731,151.29
1648531596746,151.3
1648531596762,141.98
1648531596778,125.71
1648531596793,105.23
1648531596809,83.08
1648531596824,61.51
1648531596840,42.64
1648531596856,28.4
1648531596871,20.18
1648531596887,18.27
1648531596903,21.31
1648531596918,26.43
1648531596934,30.05
1648531596949,29.17
1648531596965,22.6
1648531596981,11.48
1648531596996,-1.18
1648531597012,-11.83
1648531597028,-17.84
1648531597043,-18.54
1648531597059,-15.39
1648531597074,-11.16
1648531597090,-8.81
1648531597106,-10.38
1648531597121,-16.45
1648531597137,-26.18
1648531597153,-37.74
1648531597168,-48.9
1648531597184,-57.57
1648531597199,-62.11
1648531597215,-61.59
1648531597231,-56.01
1648531597246,-46.52
1648531597262,-35.36
1648531597278,-25.5
1648531597293,-19.78
1648531597309,-19.87
1648531597324,-25.64
1648531597340,-35.17
1648531597356,-45.63
1648531597371,-54.51
1648531597387,-60.56
1648531597403,-63.8
1648531597418,-64.96
1648531597434,-64.6
1648531597449,-62.77
1648531597465,-59.53
1648531597481,-55.4
1648531597496,-51.48
1648531597512,-48.81
1648531597528,-47.34
1648531597543,-45.66
1648531597559,-42.13
1648531597574,-36.77
1648531597590,-32.56
1648531597606,-34.67
1648531597621,-47.35
1648531597637,-70.56
1648531597653,-98.19
1648531597668,-119.6
1648531597684,-124.08
1648531597699,-105.52
1648531597715,-64.8
1648531597731,-8.78
1648531597746,53.23
1648531597762,113.11
1648531597778,165.49
1648531597793,207.35
1648531597809,236.44
1648531597824,250.63
1648531597840,248.61
1648531597856,231.43
1648531597871,203.3
1648531597887,170.76
1648531597903,140.55
1648531597918,117.26
1648531597934,102.15
1648531597949,93.66
1648531597965,88.78
1648531597981,84.77
1648531597996,80.22
1648531598012,75.03
1648531598028,69.95
1648531598043,65.97
1648531598059,63.64
1648531598074,62.78
1648531598090,62.42
1648531598106,60.99
1648531598121,57.04
1648531598137,49.74
1648531598153,39.32
1648531598168,27.02
1648531598184,14.63
1648531598199,3.76
1648531598215,-4.51
1648531598231,-9.8
1648531598246,-12.09
1648531598262,-11.41
1648531598278,-7.74
1648531598293,-1.19
1648531598309,7.68
1648531598324,17.61
1648531598340,26.71
1648531598356,32.94
1648531598371,34.64
1648531598387,31.11
1648531598403,22.87
1648531598418,11.62
1648531598434,-0.16
1648531598449,-9.92
1648531598465,-15.69
1648531598481,-16.61
1648531598496,-13.11
1648531598512,-6.6
1648531598528,0.94
1648531598543,7.65
1648531598559,12.24
1648531598574,14.24
1648531598590,14.0
1648531598606,12.65
1648531598621,11.76
1648531598637,13.03
1648531598653,17.69
1648531598668,25.85
1648531598684,35.99
1648531598699,44.98
1648531598715,48.9
1648531598731,44.46
1648531598746,30.39
1648531598762,8.14
1648531598778,-18.51
1648531598793,-44.8
1648531598809,-66.6
1648531598824,-81.41
1648531598840,-88.48
1648531598856,-88.19
1648531598871,-81.39
1648531598887,-69.22
1648531598903,-53.31
1648531598918,-36.07
1648531598934,-20.43
1648531598949,-9.11
1648531598965,-3.53
1648531598981,-3.32
1648531598996,-6.54
1648531599012,-10.61
1648531599028,-13.47
1648531599043,-14.28
1648531599059,-13.36
1648531599074,-11.58
1648531599090,-9.62
1648531599106,-7.61
1648531599121,-5.18
1648531599137,-1.98
1648531599153,1.85
1648531599168,5.63
1648531599184,8.45
1648531599199,9.76
1648531599215,9.71
1648531599231,8.94
1648531599246,7.98
1648531599262,6.52
1648531599278,3.28
1648531599293,-3.45
1648531599309,-14.85
1648531599324,-30.67
1648531599340,-49.14
1648531599356,-67.58
1648531599371,-83.52
1648531599387,-95.57
1648531599403,-103.6
1648531599418,-108.17
1648531599434,-109.71
1648531599449,-108.03
1648531599465,-102.41
1648531599481,-92.33
1648531599496,-78.22
1648531599512,-61.62
1648531599528,-44.85
1648531599543,-30.04
1648531599559,-18.39
1648531599574,-9.83
1648531599590,-3.41
1648531599606,1.94
1648531599621,6.77
1648531599637,10.9
1648531599653,13.75
1648531599668,14.88
1648531599684,14.44
1648531599699,13.08
1648531599715,11.64
1648531599731,10.59
1648531599746,9.84
1648531599762,8.82
1648531599778,6.79
1648531599793,3.29
1648531599809,-1.56
1648531599824,-7.06
1648531599840,-12.15
1648531599856,-15.86
1648531599871,-17.72
1648531599887,-17.99
1648531599903,-17.54
1648531599918,-17.39
1648531599934,-18.17
1648531599949,-19.81
1648531599965,-21.61
1648531599981,-22.74
1648531599996,-22.77
1648531600012,-21.93
1648531600028,-21.01
1648531600043,-20.84
1648531600059,-21.86
1648531600074,-23.85
1648531600090,-26.09
1648531600106,-27.77
1648531600121,-28.32
1648531600137,-27.63
1648531600153,-25.94
1648531600168,-23.62
1648531600184,-20.95
1648531600199,-18.04
1648531600215,-14.95
1648531600231,-11.76
1648531600246,-8.7
1648531600262,-6.08
1648531600278,-4.14
1648531600293,-2.85
1648531600309,-1.91
1648531600324,-0.78
1648531600340,1.05
1648531600356,3.75
1648531600371,7.03
1648531600387,10.18
1648531600403,12.39
1648531600418,13.11
1648531600434,12.28
1648531600449,10.24
1648531600465,7.53
1648531600481,4.61
1648531600496,1.7
1648531600512,-1.06
1648531600528,-3.54
1648531600543,-5.54
1648531600559,-6.88
1648531600575,-7.73
1648531600590,-8.65
1648531600606,-10.45
1648531600621,-13.7
1648531600637,-18.27
1648531600653,-23.16
1648531600668,-26.85
1648531600684,-27.97
1648531600700,-25.99
1648531600715,-21.47
1648531600731,-15.84
1648531600746,-10.8
1648531600762,-7.63
1648531600778,-6.85
1648531600793,-8.15
1648531600809,-10.73
1648531600825,-13.58
1648531600840,-15.88
1648531600856,-17.11
1648531600871,-17.14
1648531600887,-16.25
1648531600903,-14.96
1648531600918,-13.86
1648531600934,-13.38
1648531600950,-13.64
1648531600965,-14.41
1648531600981,-15.11
1648531600996,-15.02
1648531601012,-13.37
1648531601028,-9.64
